5.099981000000000392e-04
4.381335999999999889e-04
3.568641999999999908e-04
2.698671999999999833e-04
6.174991000000000117e-04
5.554922999999999805e-04
4.798493999999999936e-04
3.935720999999999989e-04
3.007063000000000249e-04
2.058624999999999962e-04
7.061631999999999545e-04
6.590746000000000408e-04
5.953684000000000103e-04
5.167769000000000225e-04
4.264798000000000091e-04
3.288276000000000024e-04
2.288144000000000094e-04
1.314055000000000008e-04
7.682011999999999998e-04
7.388256000000000163e-04
6.916871000000000000e-04
6.269818000000000353e-04
5.464594000000000352e-04
4.534210000000000215e-04
3.524280000000000078e-04
2.487416999999999905e-04
1.476062999999999898e-04
7.885888999999999876e-04
7.599554000000000118e-04
7.130822000000000419e-04
6.481180000000000448e-04
5.668163000000000368e-04
4.725312999999999866e-04
3.699182000000000186e-04
2.643594000000000087e-04
1.612317000000000101e-04
7.962258999999999960e-04
7.681648999999999812e-04
7.218243000000000272e-04
6.573453000000000369e-04
5.764713000000000519e-04
4.825356999999999954e-04
3.801596999999999984e-04
2.746874999999999751e-04
1.714681999999999925e-04
7.908016000000000351e-04
7.631091000000000220e-04
7.175353999999999673e-04
6.542527999999999712e-04
5.749795999999999727e-04
4.829551999999999868e-04
3.826443000000000118e-04
2.792005000000000181e-04
1.777898000000000033e-04
7.730299000000000371e-04
7.455311000000000490e-04
7.009459000000000002e-04
6.395066999999999939e-04
5.628898999999999925e-04
4.741764999999999891e-04
3.775712999999999877e-04
2.779090999999999918e-04
1.800411999999999933e-04
7.171102000000000379e-04
6.737390000000000219e-04
6.147035999999999603e-04
5.416200000000000354e-04
4.573611000000000213e-04
3.657951000000000106e-04
2.713462000000000144e-04
5.131804999999999700e-04
4.342136000000000129e-04
3.486502999999999846e-04
5.302326000000000435e-04
4.669308999999999851e-04
3.917389000000000179e-04
3.076633000000000059e-04
2.185978999999999895e-04
1.288662999999999896e-04
6.487126999999999867e-04
5.972775999999999953e-04
5.297515999999999510e-04
4.480927999999999799e-04
3.556906999999999994e-04
2.570707999999999782e-04
1.573381999999999906e-04
6.147319999999999954e-05
7.509517000000000492e-04
7.169999000000000467e-04
6.642602999999999529e-04
5.930434999999999743e-04
5.053740999999999832e-04
4.050057000000000245e-04
2.970990999999999758e-04
1.875622999999999982e-04
8.218859999999999437e-05
-1.415940000000000033e-05
8.269975999999999846e-04
8.136801999999999620e-04
7.810512000000000140e-04
7.275813000000000332e-04
6.533649000000000097e-04
5.604622000000000293e-04
4.529536000000000131e-04
3.365942000000000239e-04
2.180537000000000024e-04
1.039008000000000065e-04
-3.633999999999999850e-07
-9.093929999999999852e-05
8.710433000000000498e-04
8.782850000000000249e-04
8.679039999999999628e-04
8.368143999999999886e-04
7.831264000000000107e-04
7.067278000000000405e-04
6.096944999999999882e-04
4.963768000000000347e-04
3.730299000000000180e-04
2.469670000000000090e-04
1.254154000000000054e-04
1.442300000000000065e-05
-8.185559999999999603e-05
9.072811000000000504e-04
9.177290000000000491e-04
9.098685000000000453e-04
8.802763000000000341e-04
8.267803999999999692e-04
7.491079999999999571e-04
6.493427999999999657e-04
5.320261000000000391e-04
4.037630000000000169e-04
2.723154999999999781e-04
1.453753999999999973e-04
2.938680000000000128e-05
-7.122419999999999478e-05
9.299573999999999471e-04
9.425399999999999577e-04
9.364507999999999686e-04
9.080696999999999771e-04
8.550653000000000073e-04
7.770795000000000263e-04
6.762021000000000221e-04
5.570646000000000061e-04
4.264262999999999799e-04
2.922447000000000109e-04
1.624246000000000034e-04
4.361230000000000255e-05
-5.960349999999999947e-05
9.375801999999999921e-04
9.509784999999999549e-04
9.456882000000000439e-04
9.180627000000000015e-04
8.657598999999999980e-04
7.884259999999999489e-04
6.881535000000000039e-04
5.695488999999999977e-04
4.393083999999999900e-04
3.053080999999999916e-04
1.753906000000000009e-04
5.618849999999999913e-05
-4.767300000000000248e-05
9.298245999999999812e-04
9.426614000000000477e-04
9.371413000000000529e-04
9.097652999999999816e-04
8.583281000000000330e-04
7.825646000000000121e-04
6.845593999999999768e-04
5.687792000000000108e-04
4.416509999999999902e-04
3.107095000000000039e-04
1.834739000000000053e-04
6.634939999999999870e-05
-3.613439999999999746e-05
9.075808000000000096e-04
9.186227999999999625e-04
9.119675000000000264e-04
8.844130000000000177e-04
8.340113999999999818e-04
7.606458999999999877e-04
6.663755000000000372e-04
5.554276000000000352e-04
4.337937999999999733e-04
3.084590000000000227e-04
1.864032000000000113e-04
7.361920000000000150e-05
-2.558599999999999864e-05
8.727831999999999821e-04
8.811024999999999890e-04
8.726708999999999595e-04
8.446877000000000205e-04
7.955374000000000516e-04
7.252804000000000499e-04
6.359240999999999852e-04
5.313826000000000443e-04
4.170994000000000134e-04
2.993715999999999782e-04
1.844917000000000009e-04
7.790229999999999442e-05
-1.641699999999999884e-05
8.331316999999999976e-04
8.226127999999999652e-04
7.941698000000000073e-04
7.465466999999999720e-04
6.799778999999999936e-04
5.963894999999999657e-04
4.993342000000000006e-04
3.936491000000000187e-04
2.848761000000000218e-04
1.785444999999999979e-04
7.946870000000000030e-05
7.367104999999999661e-04
6.909324999999999582e-04
6.284924999999999800e-04
5.512048999999999985e-04
4.622372000000000134e-04
3.658056999999999932e-04
2.666901999999999966e-04
1.696466999999999897e-04
5.742686999999999792e-04
5.035241000000000196e-04
4.228292999999999939e-04
3.358001000000000106e-04
2.464904000000000075e-04
3.128030999999999867e-04
2.323597999999999907e-04
5.780778000000000305e-04
5.235278999999999584e-04
4.541804000000000197e-04
3.721999000000000141e-04
2.810512000000000036e-04
1.851804000000000134e-04
8.946769999999999723e-05
-1.434700000000000003e-06
7.014076000000000165e-04
6.626165999999999740e-04
6.052866000000000062e-04
5.300116000000000332e-04
4.391058000000000201e-04
3.365838999999999810e-04
2.278020000000000121e-04
1.187623999999999998e-04
1.522759999999999969e-05
-7.809719999999999488e-05
8.068278000000000342e-04
7.893925999999999677e-04
7.517389999999999663e-04
6.924019999999999481e-04
6.116668999999999492e-04
5.119286000000000236e-04
3.977493000000000239e-04
2.754756000000000023e-04
1.523748999999999969e-04
3.547570000000000324e-05
-6.951770000000000020e-05
-1.588903999999999924e-04
8.837501000000000211e-04
8.901604000000000027e-04
8.772972999999999666e-04
8.416877999999999816e-04
7.812023999999999661e-04
6.957260999999999524e-04
5.876625999999999595e-04
4.620948000000000264e-04
3.263911999999999998e-04
1.891623999999999899e-04
5.879200000000000224e-05
-5.795370000000000046e-05
-1.567587000000000006e-04
-2.358720000000000077e-04
9.261776999999999467e-04
9.551108999999999901e-04
9.681067999999999922e-04
9.602900000000000368e-04
9.273881000000000529e-04
8.665686999999999826e-04
7.772693999999999480e-04
6.618528999999999732e-04
5.258752999999999692e-04
3.776858000000000016e-04
2.272048000000000036e-04
8.414159999999999413e-05
-4.370230000000000338e-05
-1.514313999999999949e-04
-2.371623999999999911e-04
9.807545999999999018e-04
1.016447699999999989e-03
1.035646500000000046e-03
1.032786599999999935e-03
1.002850999999999916e-03
9.423451999999999914e-04
8.502813999999999598e-04
7.289714000000000523e-04
5.843772000000000333e-04
4.256926999999999977e-04
2.639639999999999955e-04
1.100407999999999985e-04
-2.737869999999999928e-05
-1.428881000000000118e-04
-2.344746999999999999e-04
9.701398000000000183e-04
1.022359600000000016e-03
1.063488000000000020e-03
1.087783099999999970e-03
1.089135599999999961e-03
1.061931899999999989e-03
1.002150600000000034e-03
9.084801999999999895e-04
7.832086999999999946e-04
6.326066999999999888e-04
4.664690000000000091e-04
2.966242999999999918e-04
1.347218000000000016e-04
-9.888600000000000495e-06
-1.313993000000000008e-04
-2.276606999999999936e-04
9.925027999999999802e-04
1.048087100000000098e-03
1.092684800000000072e-03
1.120306699999999971e-03
1.124515200000000045e-03
1.099339800000000015e-03
1.040459899999999962e-03
9.464077000000000427e-04
8.194917000000000130e-04
6.661489999999999946e-04
4.964356000000000281e-04
3.224982999999999951e-04
1.563337000000000038e-04
7.622900000000000318e-06
-1.175691999999999991e-04
-2.169460000000000062e-04
-2.912586000000000103e-04
9.995569000000000589e-04
1.056145099999999904e-03
1.101824599999999934e-03
1.130560000000000072e-03
1.135852799999999968e-03
1.111679800000000022e-03
1.053709199999999964e-03
9.605151000000000357e-04
8.344602999999999699e-04
6.819680000000000273e-04
5.129671999999999834e-04
3.394154000000000030e-04
1.731658000000000015e-04
2.387320000000000040e-05
-1.023120999999999991e-04
-2.029520000000000044e-04
-2.786535000000000249e-04
9.910143000000000164e-04
1.046166700000000088e-03
1.090447700000000053e-03
1.117983300000000013e-03
1.122493399999999935e-03
1.098218599999999968e-03
1.041104300000000047e-03
9.499471999999999907e-04
8.271724999999999954e-04
6.790007999999999721e-04
5.148737000000000235e-04
3.461003000000000039e-04
1.839338000000000041e-04
3.764919999999999861e-05
-8.671290000000000118e-05
-1.866074999999999917e-04
-2.624171999999999920e-04
9.677604000000000458e-04
1.019269400000000084e-03
1.059933899999999972e-03
1.084232299999999963e-03
1.086349699999999930e-03
1.061058699999999945e-03
1.004809099999999988e-03
9.167420000000000126e-04
7.993247999999999673e-04
6.584162999999999865e-04
5.027017999999999851e-04
3.424993000000000091e-04
1.881014999999999879e-04
4.809449999999999836e-05
-7.178819999999999819e-05
-1.689631000000000086e-04
-2.435484000000000075e-04
9.778367999999999956e-04
1.013211399999999892e-03
1.032801299999999960e-03
1.031438399999999892e-03
1.004604299999999973e-03
9.493820999999999510e-04
8.653040000000000080e-04
7.548366999999999620e-04
6.233671999999999564e-04
4.786661000000000214e-04
3.298619999999999938e-04
1.860591999999999888e-04
5.493269999999999669e-05
-5.825990000000000102e-05
-1.509830999999999944e-04
9.250909999999999559e-04
9.541874000000000319e-04
9.682930999999999873e-04
9.629861000000000193e-04
9.345323999999999905e-04
8.806791999999999485e-04
8.013293000000000325e-04
6.988937000000000404e-04
5.782216999999999869e-04
4.461075999999999909e-04
3.104234000000000203e-04
1.789961000000000124e-04
5.847960000000000164e-05
-4.645580000000000336e-05
-1.334057999999999891e-04
8.870908000000000482e-04
8.955954000000000345e-04
8.864457000000000499e-04
8.566806999999999851e-04
8.046668999999999784e-04
7.306147000000000032e-04
6.368209999999999800e-04
5.275667999999999851e-04
4.086769999999999769e-04
2.867996999999999842e-04
1.685120000000000021e-04
5.944179999999999728e-05
-3.636939999999999775e-05
8.067207000000000501e-04
7.761966000000000351e-04
7.265290999999999893e-04
6.581535999999999593e-04
5.732013999999999903e-04
4.753835000000000200e-04
3.696090999999999981e-04
2.613986000000000217e-04
1.561842999999999879e-04
5.864010000000000121e-05
6.502132000000000311e-04
5.876876000000000278e-04
5.114368000000000429e-04
4.246238000000000052e-04
3.313262999999999994e-04
2.360678999999999968e-04
1.432795999999999961e-04
2.734276999999999910e-04
1.904964999999999946e-04
5.552007999999999987e-04
4.959648999999999785e-04
4.215719999999999949e-04
3.345108999999999756e-04
2.386362000000000108e-04
1.387899000000000110e-04
4.018480000000000191e-05
-5.231810000000000312e-05
7.196658999999999565e-04
6.951465999999999895e-04
6.516656000000000445e-04
5.883480999999999650e-04
5.059986000000000041e-04
4.073459999999999993e-04
2.969959000000000206e-04
1.809945000000000033e-04
6.601020000000000032e-05
-4.169230000000000060e-05
-1.371684000000000130e-04
-2.173266999999999940e-04
8.228099999999999910e-04
8.219806999999999548e-04
8.018574000000000318e-04
7.593803999999999572e-04
6.929170000000000338e-04
6.028700000000000335e-04
4.920961999999999862e-04
3.659790999999999804e-04
2.319706000000000047e-04
9.852639999999999911e-05
-2.633409999999999915e-05
-1.363438000000000074e-04
-2.277273999999999976e-04
-2.992301000000000271e-04
8.973018000000000357e-04
9.218094999999999501e-04
9.295265000000000255e-04
9.155453999999999502e-04
8.756799999999999914e-04
8.073209000000000244e-04
7.102547999999999544e-04
5.873083999999999553e-04
4.446208000000000105e-04
2.912163999999999855e-04
1.376598999999999998e-04
-5.927800000000000233e-06
-1.317165999999999986e-04
-2.351653000000000098e-04
-3.149912999999999737e-04
9.847735999999999729e-04
1.020183499999999981e-03
1.037763900000000013e-03
1.031423600000000050e-03
9.957016000000000824e-04
9.268294000000000272e-04
8.237856000000000432e-04
6.892069000000000233e-04
5.299254000000000204e-04
3.566344000000000155e-04
1.822377999999999986e-04
1.920939999999999941e-05
-1.228973999999999865e-04
-2.387388000000000053e-04
-3.270535000000000087e-04
-3.896233999999999939e-04
1.007599799999999921e-03
1.065978200000000046e-03
1.112554100000000008e-03
1.140580200000000047e-03
1.142762099999999892e-03
1.112293699999999897e-03
1.044146900000000010e-03
9.363886000000000084e-04
7.913704000000000354e-04
6.165501000000000315e-04
4.242717999999999923e-04
2.298040000000000109e-04
4.800080000000000297e-05
-1.098630000000000017e-04
-2.376669999999999998e-04
-3.341977000000000207e-04
-4.017911000000000095e-04
1.067441699999999941e-03
1.135797299999999907e-03
1.192751699999999946e-03
1.230747300000000020e-03
1.241368500000000026e-03
1.216512000000000105e-03
1.149922999999999961e-03
1.038795199999999978e-03
8.852244999999999472e-04
6.972459999999999986e-04
4.886734999999999690e-04
2.768480999999999828e-04
7.869969999999999462e-05
-9.299120000000000508e-05
-2.314120999999999930e-04
-3.353699999999999824e-04
-4.076625999999999752e-04
1.032096900000000015e-03
1.112909700000000056e-03
1.189200999999999973e-03
1.254559400000000062e-03
1.300801999999999991e-03
1.318601499999999928e-03
1.298769699999999987e-03
1.234034800000000012e-03
1.120928300000000087e-03
9.614385999999999939e-04
7.641148000000000384e-04
5.438453000000000427e-04
3.193967000000000247e-04
1.091303999999999945e-04
-7.307950000000000394e-05
-2.198497000000000103e-04
-3.299147000000000212e-04
-4.063377000000000178e-04
-4.544514999999999839e-04
1.055548600000000108e-03
1.140754400000000036e-03
1.222000599999999984e-03
1.292688099999999988e-03
1.344261800000000080e-03
1.366824900000000080e-03
1.350504399999999904e-03
1.287425299999999913e-03
1.173819599999999979e-03
1.011762600000000022e-03
8.101580999999999843e-04
5.843512999999999832e-04
3.536170000000000264e-04
1.368836999999999918e-04
-5.141399999999999936e-05
-2.034702999999999957e-04
-3.178186000000000270e-04
-3.975245000000000189e-04
-4.480514000000000111e-04
1.062602900000000038e-03
1.148984899999999903e-03
1.231587699999999938e-03
1.303784299999999991e-03
1.356942500000000041e-03
1.381037699999999912e-03
1.366065099999999892e-03
1.304114600000000086e-03
1.191560799999999984e-03
1.030714799999999905e-03
8.305479000000000377e-04
6.061229000000000443e-04
3.762316000000000249e-04
1.594566000000000006e-04
-2.979280000000000044e-05
-1.834851000000000028e-04
-2.998462000000000024e-04
-3.816755000000000017e-04
-4.342551999999999957e-04
1.052975500000000002e-03
1.137219299999999962e-03
1.217449300000000107e-03
1.287168300000000095e-03
1.337972399999999909e-03
1.360181600000000008e-03
1.344253799999999954e-03
1.282831199999999970e-03
1.172826099999999894e-03
1.016839100000000102e-03
8.235742000000000540e-04
6.071498000000000259e-04
3.850309999999999800e-04
1.746345999999999966e-04
-1.025340000000000080e-05
-1.616471000000000130e-04
-2.774359000000000113e-04
-3.599343999999999873e-04
-4.139556000000000182e-04
1.027639299999999999e-03
1.106747900000000029e-03
1.181272099999999955e-03
1.245001300000000023e-03
1.290045299999999966e-03
1.307488199999999948e-03
1.288749600000000045e-03
1.227470299999999922e-03
1.121339899999999933e-03
9.732090999999999789e-04
7.912451000000000250e-04
5.881951999999999754e-04
3.796445000000000071e-04
1.812213999999999926e-04
5.543100000000000342e-06
-1.397749999999999958e-04
-2.523523999999999863e-04
-3.338924999999999749e-04
-3.885202000000000143e-04
1.060280200000000101e-03
1.126580999999999980e-03
1.181778500000000036e-03
1.218729599999999981e-03
1.229584699999999951e-03
1.207034000000000058e-03
1.145937700000000106e-03
1.044817900000000058e-03
9.066779000000000288e-04
7.389833000000000165e-04
5.529298000000000199e-04
3.619758999999999846e-04
1.796093000000000017e-04
1.688910000000000064e-05
-1.192402000000000040e-04
-2.262640000000000007e-04
-3.052562999999999999e-04
1.001456499999999914e-03
1.058037200000000021e-03
1.103342499999999948e-03
1.131132599999999959e-03
1.134777399999999927e-03
1.108342399999999927e-03
1.047919000000000021e-03
9.527806999999999900e-04
8.259606000000000283e-04
6.741358999999999503e-04
5.069291999999999982e-04
3.356653000000000132e-04
1.716172000000000075e-04
2.412479999999999982e-05
-1.007319999999999971e-04
-2.004575000000000031e-04
-2.755691999999999907e-04
9.806362999999998931e-04
1.015797900000000014e-03
1.034485199999999987e-03
1.031304200000000100e-03
1.001637199999999952e-03
9.426821999999999849e-04
8.543122000000000433e-04
7.394679000000000356e-04
6.039961000000000158e-04
4.560095999999999919e-04
3.048433000000000024e-04
1.596963999999999979e-04
2.824049999999999838e-05
-8.436809999999999611e-05
-1.757755999999999913e-04
9.246490999999999695e-04
9.350962999999999463e-04
9.261262999999999830e-04
8.942819000000000072e-04
8.376765000000000426e-04
7.566120000000000397e-04
6.538339000000000217e-04
5.343534000000000261e-04
4.048885000000000114e-04
2.730087999999999872e-04
1.460982000000000101e-04
3.034529999999999896e-05
-6.996919999999999409e-05
-1.527072999999999940e-04
8.378202999999999649e-04
8.243935000000000412e-04
7.915278000000000418e-04
7.380460000000000145e-04
6.645213000000000508e-04
5.734321999999999813e-04
4.689890000000000053e-04
3.566663999999999772e-04
2.425244999999999918e-04
1.324281999999999868e-04
3.131910000000000309e-05
-5.729300000000000186e-05
6.467915999999999553e-04
5.807375999999999944e-04
5.006093000000000522e-04
4.098843999999999817e-04
3.129669000000000071e-04
2.146636999999999959e-04
1.196036999999999947e-04
5.118571999999999619e-04
4.488056000000000250e-04
3.710443000000000009e-04
2.813552999999999996e-04
1.838470000000000035e-04
8.352160000000000346e-05
-1.437539999999999962e-05
-1.050779999999999992e-04
6.915693999999999791e-04
6.624852000000000518e-04
6.138437000000000060e-04
5.449765000000000295e-04
4.570330000000000269e-04
3.531906999999999928e-04
2.385339999999999900e-04
1.195269999999999959e-04
3.109799999999999855e-06
-1.043764999999999992e-04
-1.981080999999999879e-04
-2.752650999999999948e-04
8.112609999999999700e-04
8.070654999999999930e-04
7.822834999999999988e-04
7.337478000000000359e-04
6.599248999999999740e-04
5.615674000000000403e-04
4.421250000000000267e-04
3.077536999999999873e-04
1.667368999999999926e-04
2.825380000000000044e-05
-9.922800000000000608e-05
-2.093631999999999947e-04
-2.986444000000000099e-04
-3.663135999999999888e-04
9.050949999999999664e-04
9.293441999999999849e-04
9.353257000000000021e-04
9.175683000000000016e-04
8.714522999999999844e-04
7.942074999999999612e-04
6.858333000000000528e-04
5.497996000000000003e-04
3.933345999999999999e-04
2.269096000000000069e-04
6.260770000000000029e-05
-8.828029999999999569e-05
-2.174261000000000086e-04
-3.205036999999999990e-04
-3.969503000000000202e-04
-4.489318000000000171e-04
9.639820999999999807e-04
1.015495300000000042e-03
1.054121799999999934e-03
1.073107399999999930e-03
1.065324699999999894e-03
1.024371299999999934e-03
9.458500000000000327e-04
8.285833999999999517e-04
6.756839000000000378e-04
4.953232999999999811e-04
3.004893000000000234e-04
1.069020999999999942e-04
-7.053890000000000323e-05
-2.210338999999999913e-04
-3.393418999999999841e-04
-4.252662999999999843e-04
-4.820490000000000191e-04
1.058160399999999966e-03
1.125436999999999965e-03
1.180311500000000031e-03
1.214662299999999919e-03
1.219532699999999973e-03
1.186459300000000053e-03
1.109072100000000043e-03
9.846218000000000331e-04
8.154574000000000371e-04
6.104714999999999708e-04
3.853934999999999956e-04
1.602286000000000129e-04
-4.582410000000000059e-05
-2.191142000000000035e-04
-3.534677000000000175e-04
-4.492362999999999868e-04
-5.109551000000000370e-04
-5.450109999999999764e-04
1.058101000000000094e-03
1.145535800000000099e-03
1.228806100000000073e-03
1.300654999999999954e-03
1.351638700000000080e-03
1.370899099999999893e-03
1.347725300000000024e-03
1.273538600000000045e-03
1.143783499999999950e-03
9.598150000000000388e-04
7.310838999999999749e-04
4.761203000000000093e-04
2.194878999999999895e-04
-1.505669999999999935e-05
-2.109372000000000037e-04
-3.611169000000000119e-04
-4.666002000000000257e-04
-5.332801999999999768e-04
-5.689951000000000167e-04
1.120210400000000092e-03
1.220530299999999938e-03
1.318544799999999892e-03
1.406440799999999960e-03
1.473613300000000022e-03
1.507381799999999968e-03
1.494756099999999897e-03
1.424884400000000096e-03
1.291446599999999901e-03
1.094953299999999958e-03
8.454880000000000338e-04
5.641936000000000390e-04
2.797386000000000122e-04
1.991059999999999873e-05
-1.961487999999999947e-04
-3.606432000000000236e-04
-4.751353999999999842e-04
-5.466937000000000272e-04
-5.844124000000000020e-04
1.061263100000000041e-03
1.167206999999999967e-03
1.277677100000000100e-03
1.387519499999999989e-03
1.488569199999999985e-03
1.569340499999999968e-03
1.615623999999999966e-03
1.612390399999999923e-03
1.546744199999999922e-03
1.410980100000000081e-03
1.205301999999999893e-03
9.406737999999999992e-04
6.402549999999999474e-04
3.354636000000000250e-04
5.676420000000000109e-05
-1.748572999999999903e-04
-3.508893999999999815e-04
-4.731175000000000116e-04
-5.493444000000000322e-04
-5.895251999999999914e-04
1.084668599999999991e-03
1.195747899999999916e-03
1.312449299999999923e-03
1.429661499999999993e-03
1.539061100000000022e-03
1.628649299999999911e-03
1.683224000000000092e-03
1.686356599999999954e-03
1.623795199999999994e-03
1.487196999999999998e-03
1.277132100000000084e-03
1.005477700000000085e-03
6.962389000000000468e-04
3.815625000000000115e-04
9.280339999999999987e-05
-1.480595000000000077e-04
-3.317848999999999885e-04
-4.599030999999999844e-04
-5.403555000000000207e-04
-5.834272000000000373e-04
-5.991050999999999842e-04
1.091471799999999947e-03
1.203810899999999909e-03
1.322057800000000019e-03
1.441142000000000074e-03
1.552735100000000000e-03
1.644727899999999998e-03
1.701648100000000084e-03
1.706688899999999915e-03
1.645395399999999937e-03
1.509790599999999991e-03
1.301304899999999962e-03
1.032275499999999986e-03
7.259909000000000154e-04
4.132187999999999747e-04
1.244592999999999893e-04
-1.181997000000000061e-04
-3.048586000000000156e-04
-4.363602999999999970e-04
-5.201669999999999818e-04
-5.663061999999999957e-04
-5.846631999999999827e-04
1.081416499999999928e-03
1.191039999999999981e-03
1.305995899999999989e-03
1.421228399999999994e-03
1.528534900000000103e-03
1.616100799999999928e-03
1.668971900000000086e-03
1.671128800000000079e-03
1.609196600000000008e-03
1.476476200000000072e-03
1.275392699999999997e-03
1.018047900000000096e-03
7.257051000000000257e-04
4.261558999999999833e-04
1.475449000000000042e-04
-8.894390000000000065e-05
-2.730828000000000140e-04
-4.047866999999999915e-04
-4.905082000000000279e-04
-5.394474000000000014e-04
-5.609143999999999502e-04
1.158798200000000014e-03
1.266138800000000042e-03
1.372473500000000093e-03
1.469878499999999937e-03
1.547230599999999904e-03
1.590808900000000069e-03
1.586357999999999952e-03
1.522523899999999892e-03
1.394350699999999952e-03
1.205076999999999928e-03
9.660509999999999974e-04
6.959343999999999687e-04
4.187363000000000044e-04
1.591084000000000096e-04
-6.375069999999999934e-05
-2.398672999999999929e-04
-3.682393000000000168e-04
-4.539635999999999780e-04
-5.049546999999999716e-04
-5.295302999999999469e-04
1.109906199999999982e-03
1.206346199999999919e-03
1.300113799999999932e-03
1.383756099999999909e-03
1.447198600000000005e-03
1.478470800000000014e-03
1.465643499999999934e-03
1.399757800000000010e-03
1.277586299999999928e-03
1.102867700000000018e-03
8.859592000000000335e-04
6.429143999999999918e-04
3.938249999999999910e-04
1.592746000000000081e-04
-4.432600000000000217e-05
-2.078677000000000020e-04
-3.296573000000000125e-04
-4.133440999999999851e-04
-4.653077999999999837e-04
1.048145799999999949e-03
1.131702600000000043e-03
1.210910699999999960e-03
1.278986499999999922e-03
1.327162700000000025e-03
1.345469800000000018e-03
1.324433799999999916e-03
1.257402900000000002e-03
1.142597200000000039e-03
9.839510000000000530e-04
7.907209999999999803e-04
5.765186000000000269e-04
3.577696999999999908e-04
1.510337000000000105e-04
-3.032389999999999947e-05
-1.784517000000000113e-04
-2.912831999999999965e-04
-3.711656000000000026e-04
-4.229354000000000165e-04
1.047647600000000062e-03
1.111879399999999999e-03
1.164406800000000047e-03
1.197885699999999901e-03
1.204346700000000041e-03
1.176591299999999937e-03
1.109944600000000066e-03
1.003720000000000046e-03
8.617934999999999745e-04
6.922395000000000458e-04
5.063921999999999998e-04
3.174337000000000165e-04
1.383672999999999923e-04
-2.026100000000000134e-05
-1.519570999999999888e-04
-2.545611000000000249e-04
-3.293950999999999932e-04
1.009290500000000097e-03
1.047579999999999996e-03
1.068161200000000048e-03
1.064885200000000075e-03
1.032489200000000001e-03
9.678681000000000176e-04
8.710912000000000125e-04
7.457822000000000236e-04
5.987940000000000406e-04
4.393690999999999808e-04
2.779255000000000007e-04
1.245378000000000056e-04
-1.260309999999999966e-05
-1.282487999999999977e-04
-2.203267999999999926e-04
-2.894285000000000022e-04
9.341853999999999479e-04
9.442314000000000479e-04
9.336427999999999915e-04
8.987045000000000146e-04
8.374853000000000028e-04
7.505252000000000017e-04
6.410695999999999582e-04
5.147863000000000352e-04
3.790654999999999979e-04
2.420412999999999894e-04
1.114702999999999956e-04
-6.316800000000000236e-06
-1.071173999999999987e-04
-1.890349999999999951e-04
8.299050000000000307e-04
8.142965000000000056e-04
7.786018999999999492e-04
7.217220000000000536e-04
6.444468999999999979e-04
5.495867000000000417e-04
4.417317000000000249e-04
3.267004000000000002e-04
2.107893999999999914e-04
9.995720000000000581e-05
-8.984000000000000508e-07
-8.841580000000000142e-05
6.211775999999999799e-04
5.530640999999999552e-04
4.712613999999999735e-04
3.794320000000000223e-04
2.821098999999999872e-04
1.841443000000000116e-04
9.011359999999999726e-05
3.871225999999999856e-04
3.083052999999999770e-04
2.189484000000000059e-04
1.232116999999999913e-04
2.598130000000000144e-05
-6.776809999999999919e-05
6.057360999999999822e-04
5.522292999999999950e-04
4.791519000000000160e-04
3.880674999999999771e-04
2.825395000000000077e-04
1.679091000000000015e-04
5.068429999999999854e-05
-6.238510000000000008e-05
-1.653276999999999926e-04
-2.537683000000000213e-04
7.709586999999999950e-04
7.610387999999999615e-04
7.299468000000000362e-04
6.747257999999999901e-04
5.942341000000000506e-04
4.897909000000000204e-04
3.655013000000000034e-04
2.281132999999999967e-04
8.627650000000000651e-05
-5.078239999999999680e-05
-1.748538999999999964e-04
-2.800573999999999794e-04
-3.634299000000000015e-04
-4.247294000000000199e-04
8.814779999999999924e-04
9.015132000000000137e-04
9.020827000000000359e-04
8.775112000000000493e-04
8.231611999999999480e-04
7.365498999999999527e-04
6.183200000000000024e-04
4.728752000000000020e-04
3.084954000000000212e-04
1.365899999999999916e-04
-3.015539999999999931e-05
-1.803193999999999934e-04
-3.059094000000000158e-04
-4.032625999999999767e-04
-4.726080000000000125e-04
-5.168545999999999557e-04
9.595546999999999627e-04
1.010334099999999919e-03
1.047156800000000098e-03
1.062620399999999934e-03
1.048929799999999933e-03
9.992143999999999245e-04
9.090325000000000011e-04
7.777062999999999641e-04
6.093872999999999651e-04
4.137651999999999801e-04
2.056705999999999888e-04
2.588899999999999895e-06
-1.794595000000000120e-04
-3.295528999999999733e-04
-4.432288999999999739e-04
-5.215557999999999913e-04
-5.690921999999999517e-04
9.988527999999999990e-04
1.075754400000000083e-03
1.146688199999999942e-03
1.204331000000000108e-03
1.239403399999999952e-03
1.241599199999999983e-03
1.201264199999999916e-03
1.111347300000000045e-03
9.690547000000000310e-04
7.773673000000000475e-04
5.468495999999999557e-04
2.963538999999999952e-04
4.988099999999999896e-05
-1.701349999999999965e-04
-3.488796999999999862e-04
-4.810940999999999785e-04
-5.692158000000000330e-04
-6.200615000000000467e-04
-6.419093999999999972e-04
1.094571300000000014e-03
1.191291500000000092e-03
1.284711200000000081e-03
1.366490400000000072e-03
1.425410300000000104e-03
1.448344500000000017e-03
1.422360699999999922e-03
1.337225800000000102e-03
1.187282100000000042e-03
9.732382000000000359e-04
7.056061000000000407e-04
4.076735999999999858e-04
1.118282000000000011e-04
-1.511469999999999947e-04
-3.617019000000000072e-04
-5.139762999999999667e-04
-6.123872000000000039e-04
-6.665717000000000473e-04
-6.874052999999999761e-04
1.072034500000000092e-03
1.183051999999999975e-03
1.299671700000000095e-03
1.416336600000000015e-03
1.523926000000000100e-03
1.609376200000000104e-03
1.656562000000000095e-03
1.648836000000000095e-03
1.572305599999999958e-03
1.418012099999999996e-03
1.183701400000000030e-03
8.790646999999999524e-04
5.320127999999999489e-04
1.846049000000000051e-04
-1.228830000000000091e-04
-3.659240000000000019e-04
-5.383990999999999864e-04
-6.471111000000000528e-04
-7.047622000000000131e-04
-7.249055999999999599e-04
-7.193591999999999955e-04
1.132930299999999977e-03
1.258670500000000098e-03
1.393440900000000003e-03
1.531865600000000081e-03
1.664366000000000023e-03
1.776326300000000049e-03
1.848671600000000069e-03
1.860704699999999939e-03
1.794411699999999901e-03
1.637504199999999981e-03
1.385241499999999900e-03
1.046922600000000031e-03
6.550723000000000266e-04
2.608461999999999760e-04
-8.692419999999999693e-05
-3.594420999999999988e-04
-5.504937000000000111e-04
-6.690491999999999707e-04
-7.305325999999999790e-04
-7.508531000000000363e-04
-7.435318000000000222e-04
1.178780200000000000e-03
1.315983099999999987e-03
1.465137899999999910e-03
1.621203400000000017e-03
1.774475499999999921e-03
1.909272299999999938e-03
2.004007300000000026e-03
2.034007799999999842e-03
1.976916400000000140e-03
1.817503999999999951e-03
1.550293299999999999e-03
1.186042800000000055e-03
7.613121000000000254e-04
3.330447000000000268e-04
-4.471140000000000021e-05
-3.401963000000000144e-04
-5.466941999999999809e-04
-6.743346999999999796e-04
-7.403178999999999749e-04
-7.622190999999999949e-04
-7.548166999999999724e-04
1.206428899999999931e-03
1.350549500000000104e-03
1.508503399999999934e-03
1.675573500000000033e-03
1.842146900000000108e-03
1.992030200000000171e-03
2.102003099999999892e-03
2.144372600000000063e-03
2.093272199999999823e-03
1.931748500000000012e-03
1.655784200000000057e-03
1.279084900000000084e-03
8.399901000000000199e-04
3.960025000000000155e-04
2.298100000000000071e-06
-3.074749999999999792e-04
-5.252326000000000304e-04
-6.608583999999999813e-04
-7.320770999999999572e-04
-7.572221999999999547e-04
-7.517488999999999812e-04
1.214003099999999991e-03
1.359690900000000077e-03
1.519668100000000095e-03
1.689358300000000064e-03
1.859262300000000083e-03
2.013126499999999802e-03
2.127234200000000051e-03
2.172798499999999827e-03
2.122864700000000153e-03
1.961099999999999909e-03
1.686536399999999901e-03
1.315176599999999920e-03
8.831954999999999840e-04
4.436156000000000019e-04
4.955869999999999698e-05
-2.642755000000000212e-04
-4.878020000000000164e-04
-6.294128000000000396e-04
-7.060760999999999600e-04
-7.358634999999999655e-04
-7.342191999999999989e-04
1.201206999999999926e-03
1.342976700000000087e-03
1.497973199999999951e-03
1.661506299999999979e-03
1.824108999999999974e-03
1.969826899999999915e-03
2.075652500000000050e-03
2.114077299999999899e-03
2.060198999999999971e-03
1.900700099999999993e-03
1.637855199999999978e-03
1.288039900000000028e-03
8.823349000000000079e-04
4.662614999999999945e-04
8.822500000000000318e-05
-2.177005999999999939e-04
-4.396757999999999960e-04
-5.837626999999999530e-04
-6.649614999999999996e-04
-7.000001999999999527e-04
-7.035382999999999654e-04
1.169355400000000097e-03
1.302292299999999918e-03
1.446121099999999899e-03
1.595871900000000098e-03
1.742128300000000008e-03
1.869673700000000103e-03
1.957379300000000079e-03
1.981038599999999841e-03
1.920042199999999911e-03
1.765031999999999929e-03
1.520470699999999916e-03
1.201826899999999896e-03
8.350334999999999529e-04
4.574911000000000082e-04
1.104134999999999958e-04
-1.753972000000000018e-04
-3.874975000000000012e-04
-5.293271000000000434e-04
-6.129837000000000176e-04
-6.528853999999999951e-04
-6.621599999999999622e-04
1.121132300000000047e-03
1.241457000000000064e-03
1.369562099999999984e-03
1.500222100000000091e-03
1.624293200000000029e-03
1.727844099999999898e-03
1.792554899999999896e-03
1.798614000000000029e-03
1.730332299999999893e-03
1.581836500000000046e-03
1.358561600000000088e-03
1.074757599999999957e-03
7.524482999999999562e-04
4.216884000000000062e-04
1.152904999999999967e-04
-1.413058999999999984e-04
-3.364641000000000029e-04
-4.713439000000000257e-04
-5.548041000000000300e-04
-5.983915999999999714e-04
-6.131751000000000172e-04
1.165508599999999983e-03
1.275334799999999985e-03
1.384333699999999983e-03
1.483977899999999912e-03
1.562105299999999933e-03
1.603671000000000089e-03
1.593379399999999939e-03
1.519977399999999966e-03
1.380178500000000088e-03
1.179635999999999966e-03
9.312597999999999840e-04
6.538778000000000298e-04
3.713025999999999913e-04
1.084751999999999944e-04
-1.149849000000000042e-04
-2.891743999999999803e-04
-4.137109999999999833e-04
-4.945251000000000334e-04
-5.402693000000000079e-04
-5.597710999999999573e-04
1.079873600000000062e-03
1.170776099999999926e-03
1.257998499999999926e-03
1.333945399999999929e-03
1.388478299999999950e-03
1.409806700000000015e-03
1.386653600000000049e-03
1.311334400000000074e-03
1.182377400000000000e-03
1.005239000000000002e-03
7.912385999999999768e-04
5.561274999999999639e-04
3.185085000000000151e-04
9.693639999999999570e-05
-9.398819999999999571e-05
-2.463189999999999976e-04
-3.588541999999999904e-04
-4.352577999999999851e-04
-4.816721000000000262e-04
1.062478099999999981e-03
1.129579900000000003e-03
1.184467800000000084e-03
1.219026900000000097e-03
1.224366300000000055e-03
1.192483899999999914e-03
1.118389100000000049e-03
1.001826200000000000e-03
8.477883999999999550e-04
6.658047000000000054e-04
4.686240999999999844e-04
2.705726999999999785e-04
8.538849999999999739e-05
-7.615549999999999956e-05
-2.078411000000000115e-04
-3.081359999999999785e-04
-3.791221000000000001e-04
-4.249772999999999875e-04
1.005321499999999946e-03
1.042677199999999952e-03
1.061467499999999920e-03
1.055196599999999986e-03
1.018374500000000012e-03
9.479442000000000033e-04
8.443956000000000508e-04
7.120997000000000221e-04
5.587931999999999882e-04
3.944932999999999860e-04
2.300993999999999945e-04
7.580959999999999327e-05
-6.037539999999999796e-05
-1.736014000000000079e-04
-2.622699000000000146e-04
-3.274244999999999955e-04
9.127707999999999785e-04
9.198048000000000335e-04
9.057660000000000147e-04
8.670032000000000476e-04
8.017805999999999718e-04
7.109819000000000512e-04
5.983014000000000041e-04
4.698557999999999815e-04
3.333529999999999913e-04
1.970162999999999927e-04
6.845189999999999424e-05
-4.633039999999999945e-05
-1.435127999999999925e-04
-2.215569999999999931e-04
7.765826999999999669e-04
7.380044999999999574e-04
6.787304999999999554e-04
5.997980000000000195e-04
5.042509000000000140e-04
3.968453999999999732e-04
2.834399999999999832e-04
1.702134000000000058e-04
6.286719999999999331e-05
-3.403490000000000172e-05
5.079442999999999675e-04
4.270321000000000208e-04
3.371510999999999779e-04
2.427310999999999976e-04
1.484128000000000031e-04
1.551430000000000018e-04
6.433299999999999544e-05
5.315734999999999818e-04
4.745443000000000230e-04
3.995847999999999761e-04
3.086168999999999826e-04
2.053939000000000123e-04
9.519339999999999562e-05
-1.582999999999999921e-05
-1.215161000000000003e-04
-2.165854999999999950e-04
7.056127000000000146e-04
6.885646000000000041e-04
6.506879000000000352e-04
5.895323999999999530e-04
5.045547999999999960e-04
3.976939999999999772e-04
2.735610000000000190e-04
1.391161000000000079e-04
2.794999999999999921e-06
-1.268003000000000131e-04
-2.423163000000000096e-04
-3.387180000000000052e-04
-4.136969999999999797e-04
8.272461000000000484e-04
8.394582999999999516e-04
8.315446000000000209e-04
7.980841999999999711e-04
7.348965999999999528e-04
6.402098999999999637e-04
5.156089999999999892e-04
3.664990000000000023e-04
2.018975999999999963e-04
3.337239999999999917e-05
-1.268998999999999876e-04
-2.684644000000000245e-04
-3.844065000000000134e-04
-4.719767999999999837e-04
-5.320360999999999797e-04
9.218253999999999511e-04
9.663981999999999998e-04
9.958106999999999896e-04
1.002449000000000092e-03
9.784121999999999698e-04
9.170027000000000083e-04
8.144276999999999680e-04
6.712298000000000223e-04
4.931834999999999648e-04
2.915344000000000052e-04
8.204199999999999817e-05
-1.178046000000000003e-04
-2.927849999999999962e-04
-4.332008000000000148e-04
-5.358528000000000206e-04
-6.028656999999999766e-04
-6.395491999999999583e-04
9.798920000000000026e-04
1.054142400000000019e-03
1.121575799999999928e-03
1.174326999999999966e-03
1.202380799999999911e-03
1.194655900000000069e-03
1.141026500000000016e-03
1.034694399999999985e-03
8.740808000000000084e-04
6.642084999999999613e-04
4.180747999999999973e-04
1.567971000000000035e-04
-9.412920000000000672e-05
-3.120085999999999997e-04
-4.830104999999999794e-04
-6.036292000000000177e-04
-6.781893999999999683e-04
-7.150706000000000380e-04
-7.236137000000000341e-04
9.987920000000000825e-04
1.094986800000000106e-03
1.193675400000000081e-03
1.288938099999999923e-03
1.371543100000000058e-03
1.428824300000000082e-03
1.445854400000000026e-03
1.408165799999999907e-03
1.304987299999999959e-03
1.131292500000000058e-03
8.891956999999999813e-04
5.915853000000000431e-04
2.659259000000000080e-04
-5.016710000000000288e-05
-3.223190999999999817e-04
-5.308043999999999827e-04
-6.723506000000000404e-04
-7.549279000000000536e-04
-7.913040999999999782e-04
-7.945186000000000132e-04
1.090587600000000055e-03
1.208773399999999928e-03
1.334339099999999959e-03
1.461385400000000077e-03
1.579624300000000061e-03
1.673698099999999973e-03
1.724275799999999996e-03
1.711691300000000096e-03
1.620509900000000102e-03
1.441230099999999976e-03
1.170066200000000056e-03
8.159657000000000064e-04
4.131488999999999908e-04
1.706649999999999999e-05
-3.206700000000000045e-04
-5.728054999999999692e-04
-7.375313999999999568e-04
-8.283090999999999805e-04
-8.636365999999999704e-04
-8.609508999999999565e-04
-8.342084000000000478e-04
1.174892000000000080e-03
1.314849699999999901e-03
1.467804199999999922e-03
1.628370600000000066e-03
1.785726600000000054e-03
1.922080199999999907e-03
2.013306399999999999e-03
2.033559099999999922e-03
1.962075299999999859e-03
1.784741899999999935e-03
1.489712899999999897e-03
1.077540199999999946e-03
5.890313999999999793e-04
1.032626999999999964e-04
-3.062825999999999938e-04
-6.045567000000000388e-04
-7.929071999999999900e-04
-8.917393000000000021e-04
-9.260003999999999848e-04
-9.177309000000000465e-04
-8.837149000000000523e-04
1.246475300000000029e-03
1.406002499999999900e-03
1.584199299999999996e-03
1.776636600000000045e-03
1.972624200000000147e-03
2.152601799999999919e-03
2.287683899999999864e-03
2.344595000000000099e-03
2.295482900000000038e-03
2.121638400000000046e-03
1.804590499999999967e-03
1.336763599999999915e-03
7.660688000000000133e-04
1.958959000000000026e-04
-2.798599000000000139e-04
-6.202703000000000166e-04
-8.304055000000000507e-04
-9.372081999999999895e-04
-9.714416999999999931e-04
-9.592150999999999499e-04
-9.197696999999999904e-04
1.148708200000000089e-03
1.300378100000000071e-03
1.475168000000000009e-03
1.673464300000000043e-03
1.892005900000000079e-03
2.120849399999999874e-03
2.339729799999999867e-03
2.515958699999999802e-03
2.608205000000000159e-03
2.578616199999999789e-03
2.402404400000000047e-03
2.059858300000000017e-03
1.544651800000000023e-03
9.135544000000000433e-04
2.842189999999999972e-04
-2.392312000000000008e-04
-6.122607000000000179e-04
-8.412283999999999907e-04
-9.567430999999999505e-04
-9.934202999999999523e-04
-9.803081999999998988e-04
-9.385138999999999591e-04
-8.820972000000000491e-04
1.174121900000000066e-03
1.332643600000000096e-03
1.516573000000000010e-03
1.727101800000000039e-03
1.961947800000000183e-03
2.212122600000000164e-03
2.457625199999999809e-03
2.663767000000000044e-03
2.782730099999999786e-03
2.766164800000000049e-03
2.582686900000000143e-03
2.217921700000000107e-03
1.677257900000000013e-03
1.022929299999999998e-03
3.696902000000000066e-04
-1.788585000000000088e-04
-5.740434999999999462e-04
-8.192387999999999667e-04
-9.450793000000000301e-04
-9.876941999999999666e-04
-9.777334000000000806e-04
-9.374843000000000325e-04
-8.817484000000000433e-04
1.180998099999999978e-03
1.340948399999999929e-03
1.526768499999999916e-03
1.739881300000000082e-03
1.978369299999999890e-03
2.233747400000000039e-03
2.486450700000000097e-03
2.701372599999999832e-03
2.827942500000000126e-03
2.812700799999999848e-03
2.623171799999999936e-03
2.255919800000000166e-03
1.727980700000000076e-03
1.093406500000000062e-03
4.500931000000000224e-04
-1.020570999999999957e-04
-5.081099999999999853e-04
-7.655906000000000083e-04
-9.024153999999999726e-04
-9.539919999999999694e-04
-9.510672999999999870e-04
-9.162620000000000443e-04
-8.647245000000000452e-04
1.169112699999999951e-03
1.324975300000000040e-03
1.505271999999999990e-03
1.711000899999999937e-03
1.939812400000000096e-03
2.182910399999999848e-03
2.420758700000000090e-03
2.618952800000000185e-03
2.728811700000000062e-03
2.700691700000000094e-03
2.509167799999999920e-03
2.161750300000000145e-03
1.679590899999999993e-03
1.100063700000000104e-03
4.993940000000000098e-04
-2.985350000000000140e-05
-4.291755999999999978e-04
-6.899556000000000048e-04
-8.349978999999999561e-04
-8.963667999999999506e-04
-9.029781999999999869e-04
-8.766356000000000539e-04
-8.322476000000000309e-04
1.139627000000000044e-03
1.286439199999999967e-03
1.454636800000000093e-03
1.644284100000000014e-03
1.852024500000000028e-03
2.068267200000000004e-03
2.273563399999999849e-03
2.435786000000000114e-03
2.512462899999999902e-03
2.464093599999999870e-03
2.274825099999999885e-03
1.956837900000000206e-03
1.530544499999999955e-03
1.023290600000000038e-03
4.927357000000000264e-04
1.549499999999999988e-05
-3.548455999999999963e-04
-6.055780999999999881e-04
-7.525353000000000250e-04
-8.218242000000000385e-04
-8.384777999999999632e-04
-8.221809999999999535e-04
-7.868737999999999471e-04
1.228763199999999972e-03
1.379915399999999924e-03
1.547273100000000085e-03
1.726372299999999992e-03
1.907035899999999940e-03
2.070775400000000096e-03
2.189601099999999821e-03
2.229657999999999814e-03
2.162558499999999925e-03
1.979322700000000178e-03
1.691707100000000010e-03
1.319074300000000043e-03
8.866466000000000364e-04
4.385130000000000213e-04
3.102099999999999996e-05
-2.938449999999999895e-04
-5.226392999999999751e-04
-6.643906000000000421e-04
-7.380868999999999755e-04
-7.635829000000000444e-04
-7.574451999999999964e-04
1.156490399999999955e-03
1.287676699999999990e-03
1.429532999999999976e-03
1.576810600000000092e-03
1.719414299999999941e-03
1.840884799999999936e-03
1.918482300000000102e-03
1.927013300000000092e-03
1.847164400000000017e-03
1.674005899999999984e-03
1.417634000000000082e-03
1.096334600000000012e-03
7.343722000000000227e-04
3.657377999999999866e-04
2.935550000000000041e-05
-2.450814999999999743e-04
-4.459215000000000097e-04
-5.773078999999999754e-04
-6.518143000000000114e-04
-6.840426999999999619e-04
-6.870763000000000001e-04
1.184874100000000074e-03
1.300796500000000067e-03
1.416829299999999977e-03
1.523657199999999944e-03
1.607516600000000011e-03
1.650959700000000042e-03
1.636130599999999951e-03
1.550380299999999959e-03
1.391353899999999994e-03
1.167684800000000052e-03
8.956809000000000255e-04
5.968726000000000153e-04
2.972561999999999882e-04
2.349549999999999892e-05
-2.041772000000000075e-04
-3.766638000000000104e-04
-4.952999999999999504e-04
-5.678794000000000029e-04
-6.045612999999999812e-04
-6.151727000000000063e-04
1.077874699999999955e-03
1.169521399999999892e-03
1.257408499999999960e-03
1.333464199999999985e-03
1.386757699999999986e-03
1.404473299999999935e-03
1.374416299999999935e-03
1.288643400000000043e-03
1.146531299999999998e-03
9.554210000000000263e-04
7.289014999999999600e-04
4.845776000000000206e-04
2.420172000000000111e-04
1.980539999999999845e-05
-1.681409999999999882e-04
-3.149391000000000083e-04
-4.205025999999999946e-04
-4.894346999999999847e-04
-5.285434999999999786e-04
1.042126800000000046e-03
1.106220800000000046e-03
1.157475299999999926e-03
1.187551700000000036e-03
1.187344400000000036e-03
1.148781100000000012e-03
1.067125199999999999e-03
9.428292000000000226e-04
7.819997000000000406e-04
5.953870999999999903e-04
3.966180999999999830e-04
2.002077000000000110e-04
1.938239999999999928e-05
-1.360036000000000068e-04
-2.606935999999999802e-04
-3.539215999999999760e-04
-4.182680999999999942e-04
9.677854000000000057e-04
1.000019800000000051e-03
1.013393800000000075e-03
1.001602600000000079e-03
9.594497999999999699e-04
8.842919000000000300e-04
7.771466999999999568e-04
6.429692000000000306e-04
4.899925999999999544e-04
3.284396999999999989e-04
1.689778000000000070e-04
2.117250000000000100e-05
-1.077938000000000046e-04
-2.138188999999999867e-04
-2.958343000000000214e-04
8.642485999999999571e-04
8.455927999999999925e-04
8.031072999999999467e-04
7.354548000000000248e-04
6.438696999999999520e-04
5.322954999999999657e-04
4.069310000000000245e-04
2.753316000000000118e-04
1.453088000000000003e-04
2.386080000000000031e-05
-8.366349999999999612e-05
-1.740067999999999888e-04
6.750623999999999557e-04
6.150180999999999790e-04
5.370306999999999945e-04
4.442008000000000111e-04
3.411649000000000105e-04
2.334825000000000062e-04
1.268808999999999866e-04
2.652630000000000046e-05
3.166884999999999817e-04
2.292835000000000012e-04
1.320880999999999932e-04
2.998290000000000053e-05
-7.155290000000000402e-05
-1.671978000000000071e-04
5.988811000000000351e-04
5.553116000000000519e-04
4.905067999999999841e-04
4.045594999999999812e-04
2.998650999999999964e-04
1.811736000000000097e-04
5.514739999999999990e-05
-7.053830000000000191e-05
-1.883735999999999950e-04
-2.921644000000000042e-04
-3.778267999999999991e-04
7.483939999999999907e-04
7.506735999999999747e-04
7.330187000000000161e-04
6.907248000000000381e-04
6.204744000000000101e-04
5.214357000000000193e-04
3.960839000000000178e-04
2.504442000000000170e-04
9.358739999999999778e-05
-6.363889999999999814e-05
-2.104464999999999916e-04
-3.380139999999999794e-04
-4.408150000000000002e-04
-5.169594000000000229e-04
-5.676271999999999785e-04
8.539723000000000366e-04
8.877406999999999486e-04
9.053361000000000004e-04
8.995112999999999677e-04
8.629687000000000035e-04
7.898970000000000167e-04
6.777197000000000429e-04
5.284940000000000124e-04
3.495188999999999783e-04
1.529399000000000025e-04
-4.584670000000000271e-05
-2.310206000000000087e-04
-3.896487999999999818e-04
-5.140655000000000268e-04
-6.023625000000000116e-04
-6.572042999999999852e-04
-6.839233000000000118e-04
9.282888000000000424e-04
9.933406000000000961e-04
1.049997700000000018e-03
1.090260900000000104e-03
1.104066500000000072e-03
1.080472899999999946e-03
1.009885500000000033e-03
8.867478999999999943e-04
7.117040999999999949e-04
4.927352999999999985e-04
2.453798999999999781e-04
-8.603600000000000093e-06
-2.454150000000000212e-04
-4.453500999999999901e-04
-5.974331000000000043e-04
-7.001069000000000172e-04
-7.586981999999999927e-04
-7.819161999999999727e-04
-7.790479999999999584e-04
9.654881999999999831e-04
1.055967500000000057e-03
1.147779600000000018e-03
1.234642599999999975e-03
1.306770399999999986e-03
1.350722200000000015e-03
1.350711299999999985e-03
1.291780699999999990e-03
1.163845799999999996e-03
9.645343999999999923e-04
7.005266999999999484e-04
3.895675999999999935e-04
6.182310000000000106e-05
-2.456857999999999915e-04
-5.014918000000000153e-04
-6.893889999999999957e-04
-8.091136999999999982e-04
-8.707295999999999786e-04
-8.881975999999999543e-04
-8.750516000000000500e-04
1.072921799999999957e-03
1.189447099999999978e-03
1.313194099999999984e-03
1.437869200000000108e-03
1.552231700000000075e-03
1.639147699999999892e-03
1.676778799999999918e-03
1.643142599999999984e-03
1.522321799999999930e-03
1.307226400000000011e-03
9.986885999999999507e-04
6.111676000000000131e-04
1.846653000000000021e-04
-2.207656000000000061e-04
-5.525398999999999849e-04
-7.865555999999999676e-04
-9.261941000000000097e-04
-9.897422999999999377e-04
-9.989879000000000987e-04
-9.730827999999999527e-04
-9.265669999999999939e-04
1.049925699999999969e-03
1.178134900000000042e-03
1.322771199999999998e-03
1.482296699999999939e-03
1.651259900000000063e-03
1.817739600000000061e-03
1.961030400000000028e-03
2.052158399999999810e-03
2.060432599999999833e-03
1.963905199999999799e-03
1.751055500000000013e-03
1.409512699999999940e-03
9.357891999999999816e-04
3.786241000000000194e-04
-1.606676000000000133e-04
-5.926911000000000419e-04
-8.834719000000000209e-04
-1.045112599999999939e-03
-1.109114399999999940e-03
-1.107940900000000057e-03
-1.067515200000000069e-03
-1.006051100000000028e-03
1.125881000000000017e-03
1.275298399999999933e-03
1.448031800000000070e-03
1.644526699999999909e-03
1.861145800000000086e-03
2.086476199999999937e-03
2.297002299999999914e-03
2.455787799999999913e-03
2.520998899999999862e-03
2.464637899999999864e-03
2.275728099999999900e-03
6.400880000000000285e-04
-6.793619999999999509e-05
-6.190593000000000311e-04
-9.721073000000000431e-04
-1.155456700000000040e-03
-1.218434000000000010e-03
-1.205901199999999960e-03
-1.150850599999999908e-03
-1.074978199999999939e-03
-9.915220000000001064e-04
1.189879899999999897e-03
1.358033299999999912e-03
1.556135599999999928e-03
1.786965200000000019e-03
2.049492600000000185e-03
2.334221300000000141e-03
2.616531000000000065e-03
2.851804600000000089e-03
2.983159799999999823e-03
2.970804000000000066e-03
3.232310000000000229e-05
-6.308757999999999814e-04
-1.039620499999999951e-03
-1.241680800000000053e-03
-1.303646099999999919e-03
-1.281534400000000108e-03
-1.214435100000000071e-03
-1.126919799999999937e-03
-1.033334400000000038e-03
1.237762299999999992e-03
1.420275500000000093e-03
1.638130800000000067e-03
1.896308599999999966e-03
2.196636000000000075e-03
2.532706599999999791e-03
2.881494699999999874e-03
3.194051700000000073e-03
-6.162763000000000138e-04
-1.065251699999999937e-03
-1.284350999999999982e-03
-1.349320599999999978e-03
-1.323381100000000027e-03
-1.250014700000000051e-03
-1.156010500000000021e-03
-1.056636199999999972e-03
1.266288099999999996e-03
1.457224800000000075e-03
1.686765499999999963e-03
1.961403799999999857e-03
2.285215599999999934e-03
2.654968399999999874e-03
3.051330699999999906e-03
3.426546200000000000e-03
-5.444777000000000471e-04
-1.026281200000000050e-03
-1.267168799999999996e-03
-1.343855400000000056e-03
-1.323266999999999933e-03
-1.251884700000000005e-03
-1.158288400000000076e-03
-1.058676400000000068e-03
1.273604800000000068e-03
1.466122600000000029e-03
1.697813299999999942e-03
1.975549999999999962e-03
2.304163200000000199e-03
2.681887799999999825e-03
3.091865799999999904e-03
3.488799500000000064e-03
-4.064744999999999925e-04
-9.204709999999999628e-04
-1.188597599999999992e-03
-1.285602100000000090e-03
-1.279654899999999951e-03
-1.218785999999999915e-03
-1.132798400000000101e-03
-1.038759999999999900e-03
1.259499000000000079e-03
1.446673199999999951e-03
1.670819000000000037e-03
1.937923800000000089e-03
2.251700299999999811e-03
2.609118100000000148e-03
2.992095599999999942e-03
3.354570900000000168e-03
-2.573512000000000239e-04
-7.795089999999999528e-04
-1.066496799999999950e-03
-1.184834799999999900e-03
-1.198655000000000076e-03
-1.154481400000000090e-03
-1.081934899999999981e-03
-9.984569000000000864e-04
1.225391900000000027e-03
1.401039399999999893e-03
1.609119999999999908e-03
1.853744700000000073e-03
2.136116400000000106e-03
2.450124599999999910e-03
2.774697000000000014e-03
3.063513300000000016e-03
3.239712400000000197e-03
-1.614758000000000100e-04
-6.443474000000000033e-04
-9.272708999999999856e-04
-1.058832900000000092e-03
-1.091686900000000005e-03
-1.066584700000000000e-03
-1.010826000000000042e-03
-9.412624999999999551e-04
1.174094600000000080e-03
1.333434699999999900e-03
1.519152599999999947e-03
1.733055100000000090e-03
1.973470800000000011e-03
2.231311200000000213e-03
2.484094999999999966e-03
2.689880400000000098e-03
2.788787999999999944e-03
2.725323799999999821e-03
2.488251400000000054e-03
2.115402299999999836e-03
1.052048899999999962e-03
4.294928000000000157e-04
-1.235921999999999921e-04
-5.333974999999999697e-04
-7.907047999999999854e-04
-9.242191999999999552e-04
-9.714085999999999815e-04
-9.643122000000000065e-04
-9.260531999999999922e-04
-8.718493999999999810e-04
1.249401100000000061e-03
1.409202800000000080e-03
1.588441699999999920e-03
1.783129100000000085e-03
1.982576099999999817e-03
2.165564599999999802e-03
2.297988800000000213e-03
2.337272999999999955e-03
2.248708099999999904e-03
2.026314100000000014e-03
1.693265399999999924e-03
1.277128700000000009e-03
8.036601000000000205e-04
3.196350000000000254e-04
-1.112790000000000030e-04
-4.432649999999999785e-04
-6.655057999999999937e-04
-7.925929000000000394e-04
-8.485161999999999653e-04
-8.563508999999999531e-04
-8.342818000000000326e-04
-7.951975999999999706e-04
1.154941199999999892e-03
1.287943099999999978e-03
1.432495499999999946e-03
1.583282400000000012e-03
1.729572300000000069e-03
1.853242200000000022e-03
1.928631000000000095e-03
1.927062000000000002e-03
1.827223999999999906e-03
1.625957400000000060e-03
1.338959200000000094e-03
9.910809999999999932e-04
6.110653999999999652e-04
2.344953000000000044e-04
-1.003859000000000039e-04
-3.660983000000000249e-04
-5.538751999999999651e-04
-6.705253999999999685e-04
-7.305375999999999493e-04
-7.496049000000000505e-04
-7.412634999999999884e-04
1.163165299999999961e-03
1.275846800000000024e-03
1.388072599999999948e-03
1.490172899999999984e-03
1.567751299999999926e-03
1.602485799999999903e-03
1.575729799999999944e-03
1.474772500000000016e-03
1.298615400000000062e-03
1.058874999999999920e-03
7.756843000000000028e-04
4.734647000000000139e-04
1.785869999999999895e-04
-8.434409999999999770e-05
-2.980894999999999791e-04
-4.560850000000000082e-04
-5.612319000000000162e-04
-6.220416000000000313e-04
-6.488461000000000489e-04
-6.513591000000000433e-04
1.041000199999999893e-03
1.126199000000000037e-03
1.206685699999999898e-03
1.274380299999999973e-03
1.318421200000000027e-03
1.326188999999999970e-03
1.285881900000000093e-03
1.190234700000000105e-03
1.039696799999999949e-03
8.431267999999999792e-04
6.157839000000000455e-04
3.762837999999999903e-04
1.437390999999999940e-04
-6.512459999999999647e-05
-2.387190000000000026e-04
-3.720107999999999857e-04
-4.659172999999999852e-04
-5.253280999999999619e-04
-5.569143999999999614e-04
9.882851000000000222e-04
1.043879200000000012e-03
1.086056900000000047e-03
1.106916299999999992e-03
1.097983700000000097e-03
1.051957899999999939e-03
9.649122000000000211e-04
8.380584999999999857e-04
6.781593000000000039e-04
4.963942000000000051e-04
3.063122000000000045e-04
1.215934999999999938e-04
-4.600899999999999944e-05
-1.882559000000000012e-04
-3.011315999999999884e-04
-3.845143999999999992e-04
-4.411034999999999891e-04
9.011509999999999920e-04
9.250963999999999542e-04
9.306171000000000451e-04
9.121265000000000362e-04
8.652026000000000161e-04
7.878898000000000065e-04
6.816786000000000026e-04
5.517064000000000343e-04
4.060560999999999966e-04
2.544213999999999829e-04
1.065601000000000032e-04
-2.911199999999999842e-05
-1.465310999999999903e-04
-2.424209999999999885e-04
-3.161293999999999823e-04
7.850494000000000396e-04
7.617004999999999826e-04
7.165888000000000466e-04
6.488805999999999958e-04
5.600668999999999960e-04
4.540405000000000179e-04
3.366384000000000260e-04
2.147806999999999950e-04
9.544799999999999823e-05
-1.525859999999999990e-05
-1.127917999999999998e-04
3.778524000000000010e-04
2.824766000000000256e-04
1.837061999999999929e-04
3.905582999999999906e-04
3.075253999999999813e-04
2.093279999999999989e-04
1.004357000000000047e-04
-1.323790000000000077e-05
-1.251424999999999966e-04
-2.290602999999999997e-04
-3.199837999999999771e-04
6.467670000000000233e-04
6.203155000000000344e-04
5.714488999999999897e-04
4.979071999999999752e-04
3.997515000000000096e-04
2.799782000000000225e-04
1.445681000000000093e-04
1.847500000000000099e-06
-1.387559999999999976e-04
-2.682755999999999899e-04
-3.796498000000000255e-04
-4.686239000000000246e-04
-5.339029999999999601e-04
7.640696999999999463e-04
7.846256999999999711e-04
7.886475000000000212e-04
7.698342000000000162e-04
7.221407000000000433e-04
6.411868000000000255e-04
5.258151000000000404e-04
3.792574999999999853e-04
2.094214000000000004e-04
2.807099999999999941e-05
-1.510333999999999895e-04
-3.146714999999999907e-04
-4.526334999999999820e-04
-5.592473000000000149e-04
-6.335060000000000430e-04
-6.780440999999999682e-04
8.495170000000000455e-04
9.004532000000000204e-04
9.411778000000000201e-04
9.641136000000000454e-04
9.600252000000000525e-04
9.192356000000000051e-04
8.338005999999999803e-04
7.001410999999999702e-04
5.211430999999999876e-04
3.069036999999999937e-04
7.387179999999999973e-05
-1.576752000000000112e-04
-3.677112999999999974e-04
-5.409406000000000500e-04
-6.696321000000000087e-04
-7.536414000000000177e-04
-7.982587999999999880e-04
-8.114236000000000148e-04
9.027339999999999800e-04
9.807619000000000059e-04
1.057678399999999967e-03
1.127009900000000087e-03
1.178988200000000023e-03
1.200513999999999965e-03
1.176554499999999965e-03
1.093426499999999944e-03
9.431808000000000075e-04
7.270951000000000107e-04
4.569924999999999855e-04
1.548905000000000106e-04
-1.493277999999999901e-04
-4.241863999999999813e-04
-6.455204000000000410e-04
-8.024122000000000286e-04
-8.968093000000000332e-04
-9.388231000000000137e-04
-9.415083999999999996e-04
-9.173016000000000199e-04
1.018926799999999916e-03
1.124408699999999940e-03
1.234659900000000020e-03
1.342906100000000082e-03
1.437356600000000081e-03
1.500241800000000087e-03
1.509033899999999992e-03
1.441322000000000089e-03
1.282165800000000097e-03
1.029212100000000086e-03
6.933663000000000499e-04
3.003071999999999968e-04
-1.067937999999999939e-04
-4.756127000000000076e-04
-7.649757000000000084e-04
-9.588329000000000470e-04
-1.064055099999999983e-03
-1.099568999999999894e-03
-1.086564500000000103e-03
-1.043221599999999980e-03
-9.831046000000000402e-04
1.016645600000000036e-03
1.138814799999999985e-03
1.276243399999999958e-03
1.427139800000000068e-03
1.585586300000000042e-03
1.738675999999999980e-03
1.863709799999999908e-03
1.928341700000000105e-03
1.897758499999999994e-03
1.747826799999999906e-03
1.471494500000000011e-03
1.071174000000000041e-03
5.632150000000000481e-04
6.073199999999999722e-06
-5.053326000000000345e-04
-8.943379999999999472e-04
-1.137459099999999987e-03
-1.253424599999999932e-03
-1.277196200000000042e-03
-1.242437000000000099e-03
-1.174896199999999995e-03
-1.091962699999999946e-03
1.108685000000000096e-03
1.256980900000000080e-03
1.429304400000000084e-03
1.626563699999999946e-03
1.845396499999999969e-03
2.073670599999999885e-03
2.284590200000000040e-03
2.433833099999999864e-03
2.469696799999999796e-03
2.359515400000000099e-03
-4.904420000000000047e-04
-1.025859999999999966e-03
-1.332662600000000070e-03
-1.457661299999999955e-03
-1.463344500000000057e-03
-1.400901300000000071e-03
-1.305038300000000004e-03
-1.196889899999999899e-03
-1.088319300000000021e-03
1.192734700000000004e-03
1.366557900000000105e-03
1.574001800000000059e-03
1.819720099999999965e-03
2.104765099999999795e-03
2.420494999999999938e-03
2.738396799999999985e-03
3.000683000000000083e-03
3.131425000000000181e-03
-1.153969799999999971e-03
-1.532204699999999923e-03
-1.660975299999999967e-03
-1.642566700000000057e-03
-1.548793799999999971e-03
-1.423222899999999902e-03
-1.289951099999999936e-03
-1.161223399999999992e-03
1.101764899999999959e-03
1.263603399999999998e-03
1.459967699999999971e-03
1.699130000000000085e-03
1.989954500000000112e-03
2.339205699999999822e-03
2.744544099999999837e-03
3.180047599999999853e-03
3.576195900000000202e-03
-1.275904299999999899e-03
-1.710865900000000089e-03
-1.835524600000000041e-03
-1.791535900000000006e-03
-1.668482900000000085e-03
-1.516710899999999980e-03
-1.362117400000000065e-03
-1.216777299999999935e-03
1.142412800000000041e-03
1.316512099999999968e-03
1.530047099999999908e-03
1.793717700000000033e-03
2.120157200000000186e-03
2.521869999999999841e-03
3.004621500000000025e-03
3.551372100000000157e-03
-1.820192700000000012e-03
-1.941864400000000096e-03
-1.882193299999999989e-03
-1.740889000000000022e-03
-1.572711199999999926e-03
-1.404818800000000008e-03
-1.249202700000000060e-03
1.166609400000000012e-03
1.347790699999999991e-03
1.571238499999999929e-03
1.849117099999999982e-03
2.196482500000000206e-03
2.630005800000000202e-03
3.162906200000000119e-03
3.791571499999999827e-03
-1.797641700000000018e-03
-1.942298799999999910e-03
-1.891188999999999934e-03
-1.751294000000000028e-03
-1.581827600000000047e-03
-1.411980699999999984e-03
-1.254518499999999993e-03
1.172963099999999991e-03
1.355398899999999936e-03
1.580470600000000040e-03
1.860552799999999965e-03
2.211169499999999979e-03
2.650164699999999797e-03
3.193867200000000042e-03
3.846709800000000078e-03
-1.623693600000000042e-03
-1.827221699999999989e-03
-1.812406300000000015e-03
-1.695598700000000006e-03
-1.541328999999999920e-03
-1.381799699999999983e-03
-1.231536299999999974e-03
-1.096058000000000015e-03
1.339168200000000024e-03
1.557545700000000045e-03
1.827768299999999900e-03
2.163743200000000158e-03
2.580934600000000211e-03
3.092241999999999821e-03
3.696848999999999882e-03
-1.365312100000000070e-03
-1.628477400000000056e-03
-1.662121400000000047e-03
-1.582693499999999988e-03
-1.456353399999999994e-03
-1.317388799999999905e-03
-1.182219800000000034e-03
-1.057863299999999918e-03
1.300765200000000019e-03
1.505062300000000039e-03
1.754889199999999996e-03
2.060881599999999855e-03
2.433407800000000117e-03
2.877408200000000204e-03
3.379742299999999918e-03
3.883452400000000047e-03
-1.114693200000000002e-03
-1.397195400000000084e-03
-1.470265500000000067e-03
-1.430703900000000056e-03
-1.338165199999999952e-03
-1.225914399999999960e-03
-1.111231399999999987e-03
1.243413000000000070e-03
1.427952199999999979e-03
1.649649399999999913e-03
1.915088799999999959e-03
2.228665300000000002e-03
2.587094099999999886e-03
2.968123200000000097e-03
3.312739299999999977e-03
3.513048999999999859e-03
-4.079099999999999892e-04
-9.093655999999999658e-04
-1.171280200000000089e-03
-1.265803700000000045e-03
-1.259908799999999961e-03
-1.200534299999999948e-03
-1.116662399999999956e-03
-1.024861300000000060e-03
1.171414699999999984e-03
1.332686800000000083e-03
1.522011399999999900e-03
1.742108700000000046e-03
1.992278799999999944e-03
2.263687500000000075e-03
2.531534800000000054e-03
2.746295399999999862e-03
2.834781900000000066e-03
2.729891500000000085e-03
2.424060100000000051e-03
1.976749500000000038e-03
8.205762000000000125e-04
1.867813000000000069e-04
-3.564948000000000075e-04
-7.414395999999999747e-04
-9.669941000000000257e-04
-1.068509999999999946e-03
-1.087156099999999964e-03
-1.056280599999999924e-03
-9.989563999999999822e-04
-9.297745999999999528e-04
1.089554300000000059e-03
1.226273099999999980e-03
1.382407200000000062e-03
1.557682899999999994e-03
1.748086999999999948e-03
1.942511999999999971e-03
2.118380600000000207e-03
2.238776000000000047e-03
2.257279599999999827e-03
2.136447799999999925e-03
1.871717200000000024e-03
1.494193300000000099e-03
1.045585500000000088e-03
5.642946000000000030e-04
9.753699999999999805e-05
-3.015402000000000035e-04
-5.983616000000000412e-04
-7.885725999999999587e-04
-8.890376999999999872e-04
-9.238363000000000304e-04
-9.152973000000000229e-04
-8.806721000000000210e-04
-8.319875999999999487e-04
1.115276699999999920e-03
1.240118599999999894e-03
1.374860699999999906e-03
1.513969999999999899e-03
1.646516700000000017e-03
1.754226599999999994e-03
1.811411800000000023e-03
1.789629000000000046e-03
1.668219600000000070e-03
1.445534500000000009e-03
1.140911699999999900e-03
7.856490999999999518e-04
4.141837999999999900e-04
6.134730000000000131e-05
-2.417881000000000034e-04
-4.757224000000000110e-04
-6.364056999999999570e-04
-7.319692999999999512e-04
-7.763505999999999662e-04
-7.840857000000000339e-04
-7.675759999999999571e-04
1.102273200000000036e-03
1.202705400000000013e-03
1.300677799999999922e-03
1.386738499999999943e-03
1.447142200000000071e-03
1.464747800000000023e-03
1.422497700000000019e-03
1.309303599999999930e-03
1.125576199999999945e-03
8.844747000000000242e-04
6.080827999999999711e-04
3.219551999999999766e-04
5.082949999999999844e-05
-1.850103999999999930e-04
-3.729909999999999801e-04
-5.094932999999999624e-04
-5.982874000000000005e-04
-6.474070000000000172e-04
-6.661838999999999695e-04
9.735762000000000452e-04
1.046359099999999995e-03
1.112916600000000023e-03
1.165688800000000067e-03
1.194808099999999929e-03
1.189129099999999958e-03
1.138580400000000067e-03
1.037449599999999954e-03
8.871923999999999999e-04
6.971006999999999985e-04
4.824020999999999735e-04
2.609720999999999742e-04
5.006359999999999955e-05
-1.363561000000000005e-04
-2.893939000000000212e-04
-4.057452000000000129e-04
-4.868572000000000047e-04
-5.372740000000000198e-04
9.078801000000000492e-04
9.512799999999999858e-04
9.810297000000000375e-04
9.902521000000000934e-04
9.718173000000000306e-04
9.198585000000000225e-04
8.316184000000000336e-04
7.089009999999999539e-04
5.583787999999999469e-04
3.905297999999999756e-04
2.176653999999999980e-04
5.177080000000000245e-05
-9.730059999999999469e-05
-2.229706000000000027e-04
-3.222642999999999970e-04
-3.953777000000000008e-04
8.282911000000000223e-04
8.253275000000000021e-04
8.006336000000000182e-04
7.508449999999999847e-04
6.747902999999999757e-04
5.742498000000000394e-04
4.540700999999999743e-04
3.215219999999999754e-04
1.851075000000000094e-04
5.319270000000000319e-05
-6.717719999999999779e-05
-1.710483000000000001e-04
-2.558217999999999907e-04
6.653056999999999548e-04
6.193325999999999866e-04
5.541303000000000027e-04
4.712943000000000254e-04
3.743821000000000150e-04
2.685071999999999828e-04
1.596044000000000130e-04
5.357150000000000030e-05
-4.450019999999999790e-05
5.070155999999999708e-04
4.550210999999999861e-04
3.824922000000000239e-04
2.901315000000000122e-04
1.810035000000000094e-04
6.046229999999999877e-05
-6.445880000000000023e-05
-1.860878999999999908e-04
-2.973219999999999834e-04
-3.926690999999999840e-04
6.702222000000000084e-04
6.617784000000000470e-04
6.323964000000000495e-04
5.776108000000000501e-04
4.946148999999999728e-04
3.834549000000000139e-04
2.478463999999999993e-04
9.521150000000000143e-05
-6.422680000000000652e-05
-2.191298999999999905e-04
-3.590620999999999787e-04
-4.762357000000000049e-04
-5.664641999999999898e-04
-6.291378000000000465e-04
7.876937000000000305e-04
8.108691000000000119e-04
8.158857999999999736e-04
7.950964999999999725e-04
7.409402000000000045e-04
6.478020999999999823e-04
5.141714000000000354e-04
3.442779000000000195e-04
1.484147000000000005e-04
-5.837059999999999981e-05
-2.589835999999999983e-04
-4.377009999999999755e-04
-5.832160000000000078e-04
-6.902192000000000136e-04
-7.591127999999999938e-04
-7.943822000000000123e-04
-8.025712999999999641e-04
8.788001000000000363e-04
9.359604000000000317e-04
9.827798999999999043e-04
1.010280099999999936e-03
1.006993199999999932e-03
9.603898000000000252e-04
8.598514000000000461e-04
7.005689000000000274e-04
4.867243999999999846e-04
2.323931999999999962e-04
-4.023269999999999852e-05
-3.049468999999999856e-04
-5.373096000000000165e-04
-7.203094999999999854e-04
-8.472749999999999813e-04
-9.209331000000000071e-04
-9.499684999999999900e-04
-9.452859000000000088e-04
9.344906999999999736e-04
1.021519399999999949e-03
1.109250800000000049e-03
1.190585199999999932e-03
1.253961500000000005e-03
1.282764200000000108e-03
1.256720700000000038e-03
1.156516100000000045e-03
9.708877999999999779e-04
7.025984000000000526e-04
3.700312000000000089e-04
5.059299999999999994e-06
-3.518226999999999748e-04
-6.609021999999999553e-04
-8.950012000000000462e-04
-1.045786699999999960e-03
-1.121073200000000060e-03
-1.137231999999999956e-03
-1.112210599999999966e-03
-1.061523700000000002e-03
9.526352000000000301e-04
1.060261299999999945e-03
1.179326999999999979e-03
1.307140899999999911e-03
1.436890799999999968e-03
1.555012099999999965e-03
1.638694300000000104e-03
1.656153899999999925e-03
1.573429799999999943e-03
1.367696899999999932e-03
1.038136100000000084e-03
6.059582999999999680e-04
1.119631000000000055e-04
-3.821645999999999832e-04
-8.068936999999999551e-04
-1.114204099999999966e-03
-1.293906899999999922e-03
-1.365139800000000079e-03
-1.358506399999999913e-03
-1.303143299999999982e-03
-1.221426500000000019e-03
-1.128505599999999904e-03
1.054793199999999901e-03
1.190850700000000047e-03
1.347689100000000039e-03
1.525379199999999952e-03
1.719548100000000031e-03
1.916781800000000053e-03
2.088401299999999815e-03
2.186778199999999967e-03
2.154179999999999897e-03
1.949587100000000055e-03
1.569558200000000046e-03
1.031164800000000051e-03
3.629457999999999903e-04
-3.479997000000000082e-04
-9.621274999999999663e-04
-1.381826299999999947e-03
-1.597611099999999900e-03
-1.655342300000000070e-03
-1.612103599999999918e-03
-1.514111600000000047e-03
-1.392289600000000101e-03
-1.265029900000000070e-03
1.014701999999999922e-03
1.153945599999999959e-03
1.320149700000000084e-03
1.518629500000000026e-03
1.754128100000000015e-03
2.027911199999999931e-03
2.331133799999999829e-03
2.632707900000000063e-03
2.865754800000000144e-03
2.934958000000000098e-03
-1.696861700000000051e-03
-1.956704899999999955e-03
-1.985888600000000094e-03
-1.888747000000000082e-03
-1.735171300000000081e-03
-1.565124499999999939e-03
-1.399022499999999936e-03
-1.246030599999999955e-03
1.084296300000000103e-03
1.244600300000000105e-03
1.440282200000000045e-03
1.680788500000000071e-03
1.977146200000000006e-03
2.339629000000000188e-03
2.770082200000000168e-03
3.242793099999999925e-03
3.671914399999999783e-03
-2.357157999999999823e-03
-2.335527500000000173e-03
-2.167165100000000011e-03
-1.948435699999999902e-03
-1.726102599999999963e-03
-1.520231199999999994e-03
-1.337651800000000087e-03
1.142446999999999994e-03
1.320963700000000107e-03
1.542546000000000108e-03
1.820775699999999976e-03
2.173416300000000165e-03
2.621537299999999841e-03
3.182730500000000105e-03
3.847107299999999886e-03
-2.754280300000000112e-03
-2.658226100000000112e-03
-2.411108800000000187e-03
-2.127974700000000163e-03
-1.857369300000000093e-03
-1.616514899999999975e-03
-1.408851100000000061e-03
1.185623200000000084e-03
1.377770599999999937e-03
1.618854999999999990e-03
1.925746099999999916e-03
2.321779899999999817e-03
2.837671899999999817e-03
3.507562300000000195e-03
4.347112999999999672e-03
-3.046350900000000059e-03
-2.880476099999999904e-03
-2.573048200000000157e-03
-2.243896400000000135e-03
-1.940130900000000070e-03
-1.675929600000000035e-03
-1.451917899999999925e-03
1.211177599999999901e-03
1.411077099999999982e-03
1.663168899999999898e-03
1.986136700000000130e-03
2.406479799999999836e-03
2.960857400000000035e-03
3.695876900000000156e-03
-3.086803500000000113e-03
-2.924516600000000039e-03
-2.609952000000000018e-03
-2.271550299999999887e-03
-1.959840000000000020e-03
-1.689651799999999969e-03
-1.461360600000000077e-03
-1.270308300000000043e-03
1.217667100000000002e-03
1.418782699999999964e-03
1.672371100000000005e-03
1.997219800000000003e-03
2.420107800000000173e-03
2.978706900000000109e-03
3.723696099999999898e-03
-2.761510500000000177e-03
-2.506585400000000113e-03
-2.202312300000000209e-03
-1.911455500000000009e-03
-1.654665600000000030e-03
-1.435335800000000096e-03
-1.250480499999999948e-03
1.204985800000000053e-03
1.400806699999999905e-03
1.646468199999999958e-03
1.959215499999999999e-03
2.363286999999999940e-03
2.892170800000000170e-03
3.589529900000000030e-03
-2.443562099999999852e-03
-2.287027200000000138e-03
-2.048419300000000210e-03
-1.801676099999999919e-03
-1.574862700000000029e-03
-1.376218100000000050e-03
-1.205885199999999925e-03
1.174326899999999932e-03
1.358996699999999924e-03
1.588375200000000011e-03
1.876801599999999978e-03
2.243635600000000105e-03
2.713882500000000097e-03
3.315611999999999900e-03
4.065812599999999583e-03
-1.877176599999999919e-03
-2.063990999999999829e-03
-2.000667900000000117e-03
-1.837420100000000016e-03
-1.646518700000000049e-03
-1.459899499999999916e-03
-1.290022899999999917e-03
-1.140382899999999988e-03
1.128006499999999928e-03
1.296847600000000048e-03
1.503481000000000088e-03
1.758499599999999944e-03
2.075084599999999814e-03
2.467869399999999842e-03
2.947576099999999963e-03
3.504328200000000199e-03
4.068010500000000113e-03
-1.491173599999999922e-03
-1.693953599999999983e-03
-1.696283299999999921e-03
-1.600598599999999939e-03
-1.465798199999999996e-03
-1.322417999999999901e-03
-1.184940999999999902e-03
1.219039400000000023e-03
1.398922400000000062e-03
1.615520100000000098e-03
1.875923399999999963e-03
2.185413399999999902e-03
2.541555000000000029e-03
2.921047200000000035e-03
3.257859599999999873e-03
3.428343300000000031e-03
3.294965999999999867e-03
-7.739306999999999524e-04
-1.176812699999999975e-03
-1.365111200000000084e-03
-1.406891699999999979e-03
-1.363633599999999934e-03
-1.277779699999999959e-03
-1.175020199999999996e-03
-1.069609299999999897e-03
1.130812400000000056e-03
1.282525799999999910e-03
1.459849199999999894e-03
1.665000100000000064e-03
1.896755900000000059e-03
2.145716700000000008e-03
2.386370899999999944e-03
2.568289200000000144e-03
2.617478800000000178e-03
2.465871299999999790e-03
2.102788200000000034e-03
1.589051400000000098e-03
1.002257899999999978e-03
3.986071000000000210e-04
-1.616950000000000028e-04
-6.122077000000000508e-04
-9.176463999999999628e-04
-1.085996799999999936e-03
-1.149372399999999987e-03
-1.143211699999999902e-03
-1.096169199999999988e-03
-1.028141800000000050e-03
-9.517141000000000229e-04
1.037295099999999961e-03
1.161663100000000096e-03
1.302205299999999958e-03
1.457937899999999952e-03
1.624209699999999961e-03
1.789648600000000008e-03
1.932335700000000107e-03
2.017611299999999986e-03
2.002934400000000188e-03
1.854482599999999950e-03
1.568569699999999931e-03
1.177373900000000095e-03
7.313607000000000398e-04
2.805050999999999920e-04
-1.304176000000000098e-04
-4.655548000000000238e-04
-7.067224999999999679e-04
-8.561349999999999473e-04
-9.297148999999999778e-04
-9.479112999999999515e-04
-9.295132999999999694e-04
-8.891685999999999557e-04
1.042385600000000044e-03
1.150700900000000033e-03
1.265234899999999937e-03
1.380211899999999985e-03
1.485098900000000107e-03
1.563198000000000018e-03
1.591996299999999922e-03
1.547448899999999969e-03
1.412850900000000090e-03
1.188265900000000071e-03
8.931266999999999678e-04
5.595535000000000222e-04
2.226263000000000135e-04
-8.639259999999999680e-05
-3.443907999999999757e-04
-5.394866999999999588e-04
-6.712670999999999482e-04
-7.476695999999999473e-04
-7.805365999999999563e-04
-7.820054000000000328e-04
-7.625136000000000240e-04
1.010499499999999943e-03
1.092401100000000040e-03
1.169172700000000028e-03
1.232201999999999950e-03
1.269581000000000095e-03
1.267112500000000096e-03
1.211300299999999892e-03
1.094054899999999993e-03
9.170543000000000401e-04
6.929056999999999751e-04
4.421474000000000216e-04
1.880694999999999990e-04
-4.806540000000000232e-05
-2.503548999999999770e-04
-4.099934999999999973e-04
-5.252313999999999464e-04
-5.997563000000000026e-04
-6.403468999999999524e-04
-6.547382000000000462e-04
9.411877999999999607e-04
9.904710999999999637e-04
1.025476900000000082e-03
1.038022499999999943e-03
1.019286799999999946e-03
9.617280000000000186e-04
8.616025000000000029e-04
7.210584000000000351e-04
5.486195999999999608e-04
3.576481999999999752e-04
1.635043999999999994e-04
-1.941749999999999832e-05
-1.799438999999999900e-04
-3.113123999999999774e-04
-4.112477000000000233e-04
-4.811347999999999797e-04
-5.247300999999999788e-04
8.409716000000000240e-04
8.576544000000000398e-04
8.555331000000000437e-04
8.291683000000000213e-04
7.743766000000000017e-04
6.895980999999999595e-04
5.769288999999999711e-04
4.422944999999999850e-04
2.945830999999999884e-04
1.440373999999999908e-04
4.701000000000000074e-07
-1.281912000000000069e-04
-2.367427000000000127e-04
-3.228667999999999968e-04
7.111714999999999790e-04
6.820265999999999525e-04
6.318793000000000066e-04
5.602517999999999474e-04
4.689906999999999887e-04
3.623050999999999746e-04
2.462461000000000207e-04
1.277657000000000022e-04
1.363950000000000045e-05
-9.045870000000000180e-05
5.386705999999999786e-04
5.026359999999999899e-04
4.455441999999999888e-04
3.659247000000000237e-04
2.645898000000000260e-04
1.451207999999999947e-04
1.377129999999999976e-05
-1.213056999999999997e-04
-2.513508999999999926e-04
-3.684553999999999824e-04
-4.667567999999999761e-04
-5.430613999999999841e-04
6.684494999999999500e-04
6.757764999999999562e-04
6.658649000000000425e-04
6.329924000000000011e-04
5.719244000000000498e-04
4.793123999999999952e-04
3.552046999999999908e-04
2.040958000000000052e-04
3.495129999999999857e-05
-1.400131999999999896e-04
-3.075334999999999788e-04
-4.558146999999999915e-04
-5.765574000000000306e-04
-6.658904999999999902e-04
-7.240937000000000024e-04
7.627929999999999997e-04
7.994411999999999786e-04
8.239347000000000381e-04
8.287760000000000352e-04
8.050053000000000156e-04
7.435115000000000387e-04
6.373694999999999968e-04
4.847008999999999996e-04
2.908990000000000078e-04
6.900349999999999756e-05
-1.622555999999999987e-04
-3.822567999999999821e-04
-5.729363000000000121e-04
-7.223511000000000168e-04
-8.261073999999999978e-04
-8.864606999999999608e-04
-9.099854000000000102e-04
-9.050497999999999486e-04
8.299641000000000180e-04
8.949643999999999655e-04
9.564295000000000218e-04
1.007476300000000090e-03
1.037828300000000073e-03
1.033768000000000013e-03
9.796800999999999513e-04
8.618818000000000529e-04
6.741152999999999729e-04
4.222504000000000188e-04
1.254476999999999882e-04
-1.870359000000000095e-04
-4.823251000000000079e-04
-7.318693000000000030e-04
-9.180717999999999605e-04
-1.036648399999999959e-03
-1.094186999999999937e-03
-1.103228900000000024e-03
-1.077672800000000061e-03
-1.029897799999999943e-03
8.651543999999999511e-04
9.525224999999999794e-04
1.046041900000000031e-03
1.141968300000000035e-03
1.232804299999999990e-03
1.305401000000000087e-03
1.339520399999999997e-03
1.308856400000000088e-03
1.186995599999999922e-03
9.582246999999999466e-04
6.275976000000000167e-04
2.233315999999999947e-04
-2.087446000000000071e-04
-6.152129999999999795e-04
-9.489411999999999804e-04
-1.182802099999999976e-03
-1.314376199999999981e-03
-1.359536099999999982e-03
-1.341713100000000054e-03
-1.283592500000000020e-03
-1.203192299999999949e-03
9.701404000000000060e-04
1.085043599999999933e-03
1.214364600000000100e-03
1.356311100000000052e-03
1.504555099999999902e-03
1.644370999999999940e-03
1.747883100000000023e-03
1.771979400000000052e-03
1.666282500000000003e-03
1.395242299999999982e-03
9.608229999999999722e-04
4.042386999999999825e-04
-2.061781000000000106e-04
-7.835983000000000358e-04
-1.244077899999999990e-03
-1.541496299999999941e-03
-1.679980200000000040e-03
-1.695599799999999947e-03
-1.631677999999999904e-03
-1.524363300000000036e-03
-1.398712999999999996e-03
-1.270080100000000071e-03
9.530272000000000222e-04
1.077014799999999892e-03
1.223169799999999918e-03
1.395099500000000076e-03
1.595275699999999970e-03
1.822122399999999941e-03
2.063722899999999912e-03
2.286755399999999827e-03
2.424368899999999969e-03
2.381268900000000060e-03
2.080634000000000042e-03
1.522818300000000104e-03
-9.647975999999999731e-04
-1.635855799999999917e-03
-2.024264500000000182e-03
-2.155864500000000128e-03
-2.112909300000000157e-03
-1.974808700000000011e-03
-1.796904700000000014e-03
-1.611542799999999935e-03
-1.435224599999999906e-03
1.033061299999999934e-03
1.180841599999999953e-03
1.360179599999999977e-03
1.579301400000000105e-03
1.847749799999999932e-03
2.174148099999999913e-03
2.558662499999999913e-03
2.973447499999999893e-03
3.326682200000000145e-03
-2.663164699999999788e-03
-2.759218899999999787e-03
-2.611772000000000052e-03
-2.362506800000000167e-03
-2.090053200000000205e-03
-1.831143799999999976e-03
-1.599808699999999894e-03
-1.399122100000000073e-03
1.105270900000000084e-03
1.275681000000000080e-03
1.487335999999999910e-03
1.753928099999999901e-03
2.094278199999999833e-03
2.532765800000000029e-03
3.094550499999999902e-03
3.781364800000000005e-03
-3.484088000000000202e-03
-3.167892099999999878e-03
-2.767886199999999852e-03
-2.380995300000000002e-03
-2.040115400000000034e-03
-1.751180599999999955e-03
-1.510088900000000015e-03
1.165493400000000004e-03
1.355326299999999899e-03
1.595069699999999979e-03
1.903639699999999961e-03
2.309246400000000178e-03
2.853848600000000180e-03
3.595709199999999953e-03
-4.261175399999999995e-03
-3.712217299999999963e-03
-3.138873700000000162e-03
-2.634050599999999964e-03
-2.214834199999999795e-03
-1.873819500000000046e-03
-1.597711799999999979e-03
1.210067000000000000e-03
1.414265000000000053e-03
1.674766399999999978e-03
2.014302099999999967e-03
2.467944699999999932e-03
3.090792099999999792e-03
3.967825599999999682e-03
-4.898871200000000023e-03
-4.120616900000000429e-03
-3.401486799999999845e-03
-2.805680400000000203e-03
-2.329382000000000067e-03
-1.951976000000000015e-03
-1.652191199999999971e-03
-1.412298499999999936e-03
1.236311799999999976e-03
1.448526299999999996e-03
1.720387999999999995e-03
2.076421900000000043e-03
2.554713399999999825e-03
3.215779399999999909e-03
4.155991799999999778e-03
-4.250266499999999677e-03
-3.483775399999999856e-03
-2.857894299999999815e-03
-2.362795600000000204e-03
-1.973606799999999984e-03
-1.666351900000000033e-03
-1.421652000000000029e-03
1.242820599999999937e-03
1.456128699999999915e-03
1.729172400000000094e-03
2.086300599999999904e-03
2.565166600000000005e-03
3.225499499999999898e-03
4.163695700000000048e-03
-4.034534499999999947e-03
-3.354842900000000114e-03
-2.775204900000000172e-03
-2.306865799999999796e-03
-1.934159900000000055e-03
-1.637570999999999992e-03
-1.400055799999999932e-03
1.229540299999999989e-03
1.437117099999999943e-03
1.701434699999999954e-03
2.044950800000000079e-03
2.502061299999999971e-03
3.126874899999999846e-03
4.006073700000000425e-03
-3.548480599999999895e-03
-3.047169100000000214e-03
-2.573296499999999827e-03
-2.169838800000000161e-03
-1.838274599999999972e-03
-1.568606800000000006e-03
-1.349226899999999901e-03
1.197705799999999919e-03
1.393397900000000085e-03
1.640151600000000053e-03
1.957018599999999810e-03
2.372447000000000184e-03
2.929585800000000014e-03
3.693012600000000062e-03
4.748389100000000029e-03
-2.949012300000000090e-03
-2.636848199999999864e-03
-2.291590200000000101e-03
-1.973306499999999929e-03
-1.698363700000000065e-03
-1.466903999999999994e-03
-1.273800000000000062e-03
1.149677100000000025e-03
1.328506500000000085e-03
1.550695799999999994e-03
1.830770299999999896e-03
2.189197999999999839e-03
2.654254799999999827e-03
3.261260299999999869e-03
4.037768399999999876e-03
-2.341056299999999882e-03
-2.364189799999999887e-03
-2.201500700000000137e-03
-1.975719400000000049e-03
-1.744345200000000078e-03
-1.530853900000000078e-03
-1.342693600000000043e-03
-1.180319100000000020e-03
1.088677900000000007e-03
1.247241199999999913e-03
1.440390099999999977e-03
1.677761999999999960e-03
1.971490900000000095e-03
2.335268399999999855e-03
2.779214600000000108e-03
3.292907299999999968e-03
3.803970500000000005e-03
-1.435479699999999944e-03
-1.769965399999999999e-03
-1.854875800000000026e-03
-1.793707500000000024e-03
-1.662867400000000084e-03
-1.507742299999999952e-03
-1.352037499999999897e-03
-1.206727500000000057e-03
1.155078300000000023e-03
1.317527399999999897e-03
1.511018499999999994e-03
1.740746399999999966e-03
2.009678999999999893e-03
2.312999500000000215e-03
2.626254900000000048e-03
2.886760200000000002e-03
2.982964700000000080e-03
2.792843200000000217e-03
2.285019300000000215e-03
1.568054900000000022e-03
7.902515000000000147e-04
4.709619999999999811e-05
-5.886122999999999616e-04
-1.052145700000000012e-03
-1.324664699999999942e-03
-1.436851999999999964e-03
-1.438904200000000033e-03
-1.376328299999999899e-03
-1.281646800000000056e-03
-1.175181200000000037e-03
-1.068462799999999897e-03
1.057453000000000082e-03
1.190077099999999923e-03
1.342483499999999955e-03
1.515168500000000067e-03
1.705079599999999957e-03
1.901604400000000018e-03
2.080408399999999873e-03
2.197552699999999991e-03
2.192446700000000043e-03
2.011279200000000000e-03
1.644927999999999928e-03
1.143968599999999969e-03
5.889800000000000157e-04
5.352210000000000040e-05
-4.068469000000000230e-04
-7.564737999999999671e-04
-9.850306000000000079e-04
-1.105663800000000058e-03
-1.144003700000000012e-03
-1.126996199999999969e-03
-1.076825700000000026e-03
-1.009391299999999993e-03
1.064616499999999953e-03
1.181197200000000001e-03
1.306787399999999929e-03
1.435935300000000048e-03
1.557535199999999934e-03
1.652344200000000103e-03
1.692250800000000017e-03
1.644905099999999926e-03
1.486083600000000010e-03
1.214760100000000093e-03
8.583927999999999784e-04
4.625232000000000171e-04
7.448179999999999558e-05
-2.674493999999999808e-04
-5.389408999999999953e-04
-7.312474000000000014e-04
-8.491789000000000021e-04
-9.058996999999999623e-04
-9.172797000000000329e-04
-8.980029000000000483e-04
-8.598212000000000476e-04
9.458264000000000081e-04
1.032787500000000025e-03
1.121552899999999926e-03
1.206383400000000028e-03
1.277858999999999896e-03
1.322218300000000107e-03
1.322167200000000029e-03
1.260413300000000044e-03
1.125988600000000063e-03
9.206442000000000445e-04
6.608487999999999602e-04
3.734699000000000070e-04
8.806190000000000469e-05
-1.699442999999999917e-04
-3.832849999999999734e-04
-5.441811999999999865e-04
-6.532992000000000486e-04
-7.170974000000000098e-04
-7.447671999999999799e-04
-7.457965000000000210e-04
8.999362000000000117e-04
9.609748999999999462e-04
1.014574299999999960e-03
1.053479300000000063e-03
1.068319400000000002e-03
1.048617400000000088e-03
9.850853000000000127e-04
8.728765999999999565e-04
7.144563999999999516e-04
5.203535999999999708e-04
3.070921999999999801e-04
9.330259999999999671e-05
-1.042107999999999950e-04
-2.732023999999999781e-04
-4.071154000000000222e-04
-5.047498999999999562e-04
-5.689353000000000075e-04
-6.048371999999999559e-04
8.239252999999999768e-04
8.560141000000000278e-04
8.741791000000000275e-04
8.721942999999999580e-04
8.437454000000000481e-04
7.838400999999999832e-04
6.905127999999999527e-04
5.661674000000000437e-04
4.178359000000000088e-04
2.560732999999999933e-04
9.288609999999999825e-05
-6.051709999999999696e-05
-1.954597999999999882e-04
-3.066696999999999956e-04
-3.922846999999999814e-04
7.307194999999999619e-04
7.195107999999999756e-04
6.880976999999999493e-04
6.338214999999999691e-04
5.560749000000000247e-04
4.569482000000000036e-04
3.412919000000000044e-04
2.160793999999999898e-04
8.924859999999999792e-05
-3.160399999999999760e-05
-1.403057999999999942e-04
4.548902999999999974e-04
3.747560999999999948e-04
2.613137000000000185e-04
1.725979999999999897e-04
7.094199999999999942e-05
5.285367999999999707e-04
4.890915000000000453e-04
4.271826000000000052e-04
3.411811999999999853e-04
2.320094000000000084e-04
1.037155000000000000e-04
-3.664020000000000200e-05
-1.799104000000000046e-04
-3.163943999999999806e-04
-4.375277000000000224e-04
-5.372091000000000062e-04
-6.124152000000000111e-04
6.635977999999999842e-04
6.696869999999999733e-04
6.574988000000000143e-04
6.207194999999999987e-04
5.534790999999999843e-04
4.519694000000000099e-04
3.162519000000000137e-04
1.515447000000000061e-04
-3.174770000000000098e-05
-2.195654999999999970e-04
-3.969145000000000095e-04
-5.508752000000000006e-04
-6.728689999999999845e-04
-7.595128000000000035e-04
-8.120497999999999649e-04
7.604702000000000293e-04
7.972069999999999721e-04
8.212532000000000469e-04
8.244113000000000396e-04
7.966438999999999639e-04
7.274986000000000213e-04
6.088594999999999598e-04
4.384936000000000194e-04
2.229134000000000128e-04
-2.214189999999999887e-05
-2.743361999999999841e-04
-5.097285000000000444e-04
-7.083029000000000451e-04
-8.579526000000000296e-04
-9.555832000000000432e-04
-1.005478300000000073e-03
-1.016266399999999964e-03
-9.979686000000001066e-04
8.292352999999999920e-04
8.954676999999999646e-04
9.584183999999999716e-04
1.010797900000000001e-03
1.041329799999999965e-03
1.034406600000000072e-03
9.716185000000000013e-04
8.363064000000000131e-04
6.206799999999999731e-04
3.322972000000000209e-04
-4.290399999999999614e-06
-3.523401999999999914e-04
-6.723147000000000498e-04
-9.322923000000000321e-04
-1.115250599999999910e-03
-1.220269200000000023e-03
-1.258232599999999958e-03
-1.245465199999999922e-03
-1.198504200000000044e-03
-1.131221900000000053e-03
8.649960000000000374e-04
9.541884999999999733e-04
1.050476500000000011e-03
1.150305599999999892e-03
1.246013200000000093e-03
1.323313900000000097e-03
1.358909099999999976e-03
1.320768499999999896e-03
1.175040700000000047e-03
9.008154000000000421e-04
5.054763999999999568e-04
2.888590000000000070e-05
-4.665008000000000110e-04
-9.132934000000000538e-04
-1.258819999999999904e-03
-1.479421999999999985e-03
-1.581298600000000066e-03
-1.589400199999999996e-03
-1.533917699999999898e-03
-1.441408699999999947e-03
-1.331501500000000079e-03
9.716279999999999882e-04
1.089572000000000023e-03
1.223837100000000006e-03
1.373516599999999961e-03
1.533071800000000056e-03
1.687406200000000087e-03
1.804643799999999928e-03
1.830507600000000085e-03
1.695737799999999951e-03
1.347754100000000087e-03
7.907037000000000440e-04
9.367140000000000579e-05
-6.352728000000000411e-04
-1.278900099999999949e-03
-1.745648999999999942e-03
-2.002843199999999879e-03
-2.076546800000000133e-03
-2.021625899999999858e-03
-1.892630499999999917e-03
-1.730348800000000098e-03
-1.560494099999999978e-03
-1.397246599999999979e-03
9.536402000000000247e-04
1.080171300000000098e-03
1.230760299999999899e-03
1.410377999999999892e-03
1.623739799999999968e-03
1.872539000000000104e-03
2.148146200000000151e-03
2.415714399999999932e-03
2.589934400000000036e-03
2.527328299999999795e-03
1.282954200000000064e-03
-1.838420400000000034e-03
-2.484481599999999960e-03
-2.762661899999999896e-03
-2.753920899999999852e-03
-2.577363400000000186e-03
-2.328037900000000122e-03
-2.063683900000000057e-03
-1.813385700000000062e-03
-1.588993900000000006e-03
1.034477599999999997e-03
1.185451699999999931e-03
1.370566699999999950e-03
1.600302199999999913e-03
1.888565200000000104e-03
2.252174899999999889e-03
2.704987600000000048e-03
3.234219100000000017e-03
-3.865229400000000110e-03
-3.663091500000000000e-03
-3.268153499999999941e-03
-2.833959400000000180e-03
-2.429688499999999897e-03
-2.078400800000000052e-03
-1.782378800000000100e-03
-1.536042999999999957e-03
1.107246099999999915e-03
1.281289199999999977e-03
1.499689600000000001e-03
1.779243800000000070e-03
2.145571299999999865e-03
2.638358700000000175e-03
3.316804300000000122e-03
-4.824386299999999621e-03
-4.071551799999999915e-03
-3.379260199999999884e-03
-2.801126000000000137e-03
-2.334848400000000181e-03
-1.962547900000000123e-03
-1.664980599999999920e-03
1.012832599999999956e-03
1.167739500000000057e-03
1.361346600000000028e-03
1.608156899999999999e-03
1.930613799999999916e-03
2.365292199999999810e-03
2.975432699999999882e-03
3.876487599999999846e-03
-6.150290200000000165e-03
-4.895318499999999802e-03
-3.895577999999999801e-03
-3.132481099999999928e-03
-2.553447800000000194e-03
-2.110755099999999784e-03
-1.768057200000000030e-03
1.047268999999999978e-03
1.212343899999999931e-03
1.420188400000000099e-03
1.687430400000000099e-03
2.040100600000000191e-03
2.521268399999999823e-03
3.207317400000000030e-03
-5.553272100000000190e-03
-4.278743699999999588e-03
-3.365540000000000198e-03
-2.700984300000000126e-03
-2.207504900000000197e-03
-1.833481500000000040e-03
-1.544495299999999998e-03
1.067737200000000095e-03
1.238500700000000039e-03
1.454117599999999984e-03
1.732098700000000080e-03
2.099660499999999892e-03
2.601138399999999937e-03
3.312893300000000017e-03
-5.814643500000000152e-03
-4.421279099999999782e-03
-3.447156800000000104e-03
-2.749643200000000034e-03
-2.237478900000000083e-03
-1.852430300000000064e-03
-1.556713400000000070e-03
1.244930999999999902e-03
1.461462400000000097e-03
1.740187899999999900e-03
2.107736299999999913e-03
2.606810299999999872e-03
3.309166399999999807e-03
4.341657100000000102e-03
-5.553075600000000403e-03
-4.270524000000000368e-03
-3.353249899999999860e-03
-2.687553499999999814e-03
-2.194454800000000035e-03
-1.821471199999999922e-03
-1.533736200000000022e-03
1.231640800000000048e-03
1.442408999999999965e-03
1.712371000000000075e-03
2.066313699999999982e-03
2.543930900000000109e-03
3.212526500000000007e-03
4.194855100000000406e-03
-4.862908299999999656e-03
-3.866044800000000177e-03
-3.102372800000000215e-03
-2.524227699999999786e-03
-2.083673700000000101e-03
-1.743667400000000096e-03
-1.477443599999999930e-03
1.199825100000000101e-03
1.398757100000000073e-03
1.651321500000000036e-03
1.979117199999999924e-03
2.416496599999999953e-03
3.021482299999999916e-03
3.899007300000000009e-03
-3.983106999999999620e-03
-3.315119499999999789e-03
-2.746730599999999949e-03
-2.286894499999999990e-03
-1.920203400000000020e-03
-1.627789500000000099e-03
-1.393167799999999899e-03
1.151742600000000075e-03
1.333795100000000067e-03
1.561785100000000030e-03
1.852742899999999977e-03
2.232705299999999862e-03
2.742947700000000159e-03
3.449822200000000026e-03
-3.424529899999999814e-03
-3.124010799999999820e-03
-2.731051300000000067e-03
-2.347996599999999968e-03
-2.010183500000000192e-03
-1.724203400000000027e-03
-1.486000500000000078e-03
-1.288496400000000005e-03
1.090523199999999995e-03
1.252117799999999913e-03
1.450643799999999997e-03
1.697826400000000072e-03
2.010038100000000050e-03
2.409613899999999993e-03
2.923507699999999907e-03
3.568894100000000007e-03
-2.331148800000000174e-03
-2.478698599999999870e-03
-2.390603600000000030e-03
-2.190870599999999915e-03
-1.956269200000000132e-03
-1.725692200000000093e-03
-1.515620999999999982e-03
-1.331065300000000085e-03
1.019851200000000072e-03
1.159152000000000099e-03
1.326166400000000070e-03
1.527614299999999941e-03
1.771340699999999959e-03
2.064842500000000063e-03
2.410020100000000165e-03
2.788754400000000196e-03
3.132930199999999984e-03
3.291099000000000021e-03
1.395420600000000068e-03
3.824357999999999816e-04
-5.005333000000000481e-04
-1.170647900000000010e-03
-1.591514600000000024e-03
-1.783480800000000104e-03
-1.807523300000000001e-03
-1.730007700000000008e-03
-1.602032300000000081e-03
-1.456134900000000077e-03
-1.310503599999999959e-03
-1.174120100000000102e-03
1.060428399999999898e-03
1.196605299999999993e-03
1.354872499999999974e-03
1.537110300000000054e-03
1.742147899999999970e-03
1.961169699999999825e-03
2.169400699999999953e-03
2.315617500000000020e-03
2.320553500000000109e-03
2.105590300000000168e-03
1.651715999999999905e-03
1.030381699999999940e-03
3.604754999999999743e-04
-2.539889999999999834e-04
-7.467847000000000330e-04
-1.088832400000000001e-03
-1.284559000000000005e-03
-1.361557100000000036e-03
-1.355435899999999977e-03
-1.298373700000000040e-03
-1.214446899999999975e-03
-1.119607500000000064e-03
9.608684999999999839e-04
1.068902999999999954e-03
1.189439000000000034e-03
1.320989799999999900e-03
1.458653700000000098e-03
1.591319099999999927e-03
1.698104699999999998e-03
1.746195700000000104e-03
1.695129899999999953e-03
1.512339699999999936e-03
1.194739999999999908e-03
7.780295999999999480e-04
3.226389999999999987e-04
-1.104880000000000033e-04
-4.762176999999999925e-04
-7.507812000000000209e-04
-9.307239000000000354e-04
-1.027444499999999924e-03
-1.059650000000000088e-03
-1.046872699999999929e-03
-1.005739700000000091e-03
-9.487490999999999590e-04
9.480301000000000223e-04
1.037434700000000078e-03
1.129598199999999955e-03
1.218788200000000014e-03
1.295126200000000028e-03
1.343496100000000047e-03
1.344017400000000004e-03
1.275894299999999959e-03
1.125221299999999919e-03
8.935571000000000442e-04
6.010635000000000500e-04
2.809865000000000041e-04
-3.080610000000000309e-05
-3.049837999999999920e-04
-5.235644999999999709e-04
-6.805382000000000228e-04
-7.795001999999999877e-04
-8.298332000000000494e-04
-8.430116000000000519e-04
-8.300092000000000017e-04
9.017304000000000291e-04
9.644856000000000479e-04
1.020007999999999982e-03
1.060589899999999893e-03
1.075971599999999990e-03
1.054326599999999949e-03
9.848357999999999331e-04
8.616020999999999749e-04
6.873037000000000243e-04
4.742953000000000056e-04
2.420764000000000054e-04
1.235179999999999921e-05
-1.959157000000000053e-04
-3.697209999999999928e-04
-5.030171999999999855e-04
-5.958846999999999972e-04
-6.526583999999999988e-04
-6.798503999999999919e-04
8.242815000000000124e-04
8.569419000000000428e-04
8.752318999999999507e-04
8.723897999999999462e-04
8.414101000000000436e-04
7.766255000000000337e-04
6.757090000000000318e-04
5.413157999999999512e-04
3.814506999999999967e-04
2.081611999999999883e-04
3.502829999999999800e-05
-1.255371999999999879e-04
-2.642955000000000109e-04
-3.760589000000000054e-04
-4.595159000000000027e-04
7.282795000000000327e-04
7.157481999999999516e-04
6.819123000000000068e-04
6.238173999999999542e-04
5.407514999999999674e-04
4.350118000000000149e-04
3.119981999999999769e-04
1.794800000000000095e-04
4.624099999999999993e-05
-7.943890000000000272e-05
-1.910085000000000060e-04
5.603210000000000178e-04
5.091580000000000064e-04
4.403179000000000012e-04
3.556861000000000029e-04
2.590207000000000186e-04
2.347824000000000037e-04
1.420491000000000017e-04
3.619200000000000178e-05
-7.754469999999999636e-05
5.092289000000000060e-04
4.665094999999999962e-04
4.004874999999999971e-04
3.094535000000000146e-04
1.944240000000000074e-04
5.979079999999999681e-05
-8.679740000000000350e-05
-2.354671999999999874e-04
-3.758419000000000039e-04
-4.989139000000000074e-04
-5.984717999999999982e-04
6.476210000000000256e-04
6.513616000000000284e-04
6.361448000000000016e-04
5.953231999999999925e-04
5.226471999999999585e-04
4.140201999999999836e-04
2.695217000000000186e-04
9.489269999999999357e-05
-9.839670000000000610e-05
-2.948982999999999748e-04
-4.783275000000000244e-04
-6.349815000000000190e-04
-7.561929999999999477e-04
-8.390923000000000435e-04
-8.857736999999999859e-04
7.451973999999999881e-04
7.799312000000000519e-04
8.015060000000000066e-04
8.013525000000000292e-04
7.688118000000000512e-04
6.925918999999999782e-04
5.637644999999999722e-04
3.798035999999999968e-04
1.479957999999999968e-04
-1.138818000000000046e-04
-3.806673999999999800e-04
-6.258239000000000510e-04
-8.279337000000000111e-04
-9.750224000000000044e-04
-1.065300199999999996e-03
-1.104840900000000035e-03
-1.103957999999999936e-03
-1.073943400000000083e-03
8.145014999999999807e-04
8.789531999999999857e-04
9.399605999999999803e-04
9.900556999999999067e-04
1.017451900000000036e-03
1.005451699999999893e-03
9.338511000000000077e-04
7.838593999999999510e-04
5.463634000000000416e-04
2.299605999999999883e-04
-1.366270000000000050e-04
-5.104645000000000319e-04
-8.464774999999999470e-04
-1.110281700000000094e-03
-1.285967899999999929e-03
-1.375982399999999906e-03
-1.395029899999999977e-03
-1.362515300000000009e-03
-1.296938700000000106e-03
-1.213153900000000108e-03
8.507051000000000283e-04
9.380980999999999825e-04
1.032599300000000032e-03
1.130780000000000066e-03
1.224983100000000052e-03
1.300430900000000079e-03
1.332119299999999984e-03
1.284304399999999921e-03
1.117624999999999912e-03
8.065455999999999711e-04
3.593820999999999756e-04
-1.746759000000000126e-04
-7.183518999999999755e-04
-1.191685299999999939e-03
-1.538133400000000041e-03
-1.738906300000000018e-03
-1.809031299999999893e-03
-1.781578100000000059e-03
-1.692086200000000049e-03
-1.569741900000000022e-03
-1.434948599999999897e-03
9.558988000000000033e-04
1.071809300000000059e-03
1.204264600000000017e-03
1.352844900000000055e-03
1.512639400000000004e-03
1.668766900000000003e-03
1.787448600000000063e-03
1.807231000000000072e-03
1.644402199999999955e-03
1.230664299999999906e-03
5.687584999999999993e-04
-2.486796999999999901e-04
-1.074174100000000040e-03
-1.760069699999999978e-03
-2.211626700000000195e-03
-2.414920899999999961e-03
-2.419289099999999849e-03
-2.296127399999999940e-03
-2.108013499999999898e-03
-1.897902099999999957e-03
-1.690744799999999940e-03
-1.498926299999999920e-03
9.385478000000000267e-04
1.062680799999999931e-03
1.210794199999999914e-03
1.388362300000000075e-03
1.601225400000000094e-03
1.853209300000000078e-03
2.138722400000000155e-03
2.424074300000000123e-03
2.613207199999999838e-03
-4.150577000000000021e-04
-1.730187900000000091e-03
-2.750828800000000140e-03
-3.315006599999999887e-03
-3.445085999999999982e-03
-3.281692899999999989e-03
-2.973086800000000057e-03
-2.621360499999999833e-03
-2.281215400000000202e-03
-1.975918499999999856e-03
-1.711798999999999960e-03
1.017860700000000011e-03
1.165806799999999973e-03
1.347623299999999935e-03
1.574464100000000063e-03
1.862170999999999922e-03
2.232440699999999837e-03
2.709879300000000209e-03
-5.031969899999999725e-03
-4.484087799999999721e-03
-3.836667499999999939e-03
-3.228960300000000005e-03
-2.707842900000000108e-03
-2.277832500000000204e-03
-1.928187800000000099e-03
-1.644739199999999948e-03
9.510871000000000169e-04
1.088979199999999970e-03
1.259122299999999991e-03
1.472866499999999929e-03
1.747562600000000018e-03
2.111194199999999899e-03
2.611495699999999941e-03
3.332804899999999848e-03
-6.085779900000000235e-03
-4.870017499999999659e-03
-3.897204599999999804e-03
-3.147256599999999956e-03
-2.573266800000000108e-03
-2.131542799999999998e-03
-1.787947000000000017e-03
9.966721999999999474e-04
1.147842700000000068e-03
1.336497700000000097e-03
1.576776700000000024e-03
1.891009400000000056e-03
2.317185900000000125e-03
2.926779799999999852e-03
-7.999340500000000354e-03
-5.963640400000000223e-03
-4.544543800000000119e-03
-3.545977699999999875e-03
-2.828419400000000122e-03
-2.300575400000000152e-03
-1.903415899999999971e-03
1.030284600000000005e-03
1.191069199999999963e-03
1.392924000000000028e-03
1.651592199999999972e-03
1.991803999999999797e-03
2.455241200000000002e-03
3.119880299999999891e-03
-9.798954500000000081e-03
-6.874417800000000127e-03
-5.040253300000000283e-03
-3.833355000000000096e-03
-3.004069600000000041e-03
-2.412774199999999977e-03
-1.977777600000000212e-03
-1.649175099999999937e-03
1.050263700000000086e-03
1.216365299999999953e-03
1.425256699999999984e-03
1.693112899999999962e-03
2.044694899999999985e-03
2.519694800000000113e-03
3.185760199999999789e-03
-7.282424600000000220e-03
-5.243614199999999809e-03
-3.942827000000000311e-03
-3.066571299999999809e-03
-2.450111500000000213e-03
-2.000873299999999903e-03
-1.663844700000000065e-03
1.055759099999999898e-03
1.222655200000000077e-03
1.432277399999999949e-03
1.700455399999999942e-03
2.050985200000000029e-03
2.520787500000000198e-03
3.168983199999999851e-03
4.092771400000000392e-03
-6.992867899999999706e-03
-5.079537200000000356e-03
-3.842059899999999972e-03
-3.000706200000000188e-03
-2.404890299999999908e-03
-1.968573899999999811e-03
-1.640016499999999953e-03
1.209996600000000063e-03
1.414293799999999900e-03
1.674596800000000040e-03
2.013494399999999924e-03
2.466717700000000020e-03
3.094874599999999833e-03
-6.110893099999999654e-03
-4.591574299999999845e-03
-3.551239400000000008e-03
-2.816715799999999856e-03
-2.282702199999999803e-03
-1.884121799999999942e-03
-1.579666900000000060e-03
1.179462399999999965e-03
1.372831400000000058e-03
1.617541699999999923e-03
1.934141799999999954e-03
2.355997800000000138e-03
2.942744599999999947e-03
3.816853299999999928e-03
-6.309514900000000315e-03
-4.956859600000000296e-03
-3.914921000000000026e-03
-3.133270499999999802e-03
-2.546335099999999865e-03
-2.100670199999999863e-03
-1.757290699999999916e-03
-1.488646599999999924e-03
1.133070400000000047e-03
1.310661899999999947e-03
1.532848399999999986e-03
1.816585199999999969e-03
2.188949899999999803e-03
2.696615099999999897e-03
3.426881200000000179e-03
-4.511408500000000342e-03
-3.828454800000000071e-03
-3.196667900000000131e-03
-2.663907699999999885e-03
-2.230489100000000030e-03
-1.881952899999999977e-03
-1.601755100000000097e-03
1.073688699999999965e-03
1.231863799999999981e-03
1.426345899999999960e-03
1.669271200000000017e-03
1.978604699999999932e-03
2.381519999999999818e-03
2.917945999999999821e-03
3.634861599999999852e-03
-3.265887900000000177e-03
-3.162865200000000016e-03
-2.878315599999999985e-03
-2.537486099999999856e-03
-2.204824800000000033e-03
-1.906562799999999940e-03
-1.649487499999999999e-03
-1.431881899999999956e-03
1.004796700000000096e-03
1.141515799999999903e-03
1.305737599999999944e-03
1.504671599999999948e-03
1.747444599999999895e-03
2.044470599999999826e-03
2.403343699999999864e-03
2.814216100000000061e-03
3.212061899999999869e-03
-1.253989999999999966e-04
-1.116879899999999965e-03
-1.781334299999999971e-03
-2.123370800000000131e-03
-2.212417600000000147e-03
-2.139517200000000136e-03
-1.982323199999999879e-03
-1.792970500000000021e-03
-1.601184799999999910e-03
-1.421621199999999934e-03
-1.260157999999999938e-03
1.045002499999999907e-03
1.179166400000000075e-03
1.335760399999999992e-03
1.517440299999999994e-03
1.724407100000000101e-03
1.949737100000000032e-03
2.169863000000000174e-03
2.330429599999999952e-03
2.339438699999999913e-03
2.097490599999999802e-03
1.574071100000000055e-03
8.553359000000000179e-04
9.307220000000000651e-05
-5.795152999999999503e-04
-1.085714999999999901e-03
-1.405021100000000038e-03
-1.558519200000000032e-03
-1.588137899999999972e-03
-1.537879000000000025e-03
-1.443344800000000107e-03
-1.329146900000000107e-03
-1.210482199999999989e-03
9.472449999999999880e-04
1.053715100000000024e-03
1.172918599999999995e-03
1.303750100000000038e-03
1.441818400000000012e-03
1.576402200000000036e-03
1.686172400000000024e-03
1.735792699999999912e-03
1.679379400000000078e-03
1.477798599999999990e-03
1.125327599999999956e-03
6.631194000000000194e-04
1.633907999999999942e-04
-3.011590000000000079e-04
-6.793803000000000385e-04
-9.486371999999999643e-04
-1.111067500000000041e-03
-1.184401500000000027e-03
-1.192166900000000019e-03
-1.156708300000000101e-03
-1.095881400000000075e-03
-1.022441299999999904e-03
9.345625999999999890e-04
1.022761299999999955e-03
1.113970400000000071e-03
1.202580599999999956e-03
1.278637999999999910e-03
1.326438799999999935e-03
1.324657699999999940e-03
1.250220000000000021e-03
1.087007600000000065e-03
8.360897999999999854e-04
5.200495999999999548e-04
1.769138999999999868e-04
-1.524023999999999962e-04
-4.354237000000000168e-04
-6.538212999999999534e-04
-8.034328000000000303e-04
-8.905913000000000327e-04
-9.272183999999999721e-04
-9.266192000000000135e-04
-9.008446000000000248e-04
8.884916000000000298e-04
9.501467000000000419e-04
1.004591399999999910e-03
1.043954699999999954e-03
1.057553500000000092e-03
1.032808299999999962e-03
9.579379000000000496e-04
8.262897999999999641e-04
6.405837999999999637e-04
4.143808999999999817e-04
1.693278999999999954e-04
-7.055199999999999807e-05
-2.846680999999999994e-04
-4.595415999999999846e-04
-5.897091999999999612e-04
-6.764367000000000079e-04
-7.253579000000000233e-04
-7.440774999999999516e-04
8.111144999999999943e-04
8.425216999999999602e-04
8.593035000000000170e-04
8.544384000000000354e-04
8.205445999999999704e-04
7.515516000000000297e-04
6.448914000000000035e-04
5.033652999999999695e-04
3.356278000000000191e-04
1.547742000000000063e-04
-2.447959999999999852e-05
-1.888639000000000062e-04
-3.287844000000000161e-04
-4.392150000000000156e-04
-5.193634000000000358e-04
7.103619000000000469e-04
7.134936000000000359e-04
6.990750999999999910e-04
6.627757000000000179e-04
6.014783000000000109e-04
5.144146000000000265e-04
4.040205000000000055e-04
2.760662999999999897e-04
1.388690999999999949e-04
1.800699999999999971e-06
-1.263919999999999920e-04
-2.389248000000000066e-04
5.432215999999999694e-04
4.896381999999999905e-04
4.179610000000000053e-04
3.301844999999999758e-04
2.302874000000000002e-04
1.237653999999999924e-04
2.834099000000000188e-04
2.048676000000000034e-04
1.099219999999999955e-04
2.012399999999999994e-06
-1.134579000000000035e-04
-2.297738000000000124e-04
4.813883999999999936e-04
4.357955000000000054e-04
3.667607000000000137e-04
2.725938000000000124e-04
1.543797000000000019e-04
1.667000000000000133e-05
-1.326187000000000047e-04
-2.832765000000000109e-04
-4.246146000000000122e-04
-5.474425999999999685e-04
-6.455526999999999967e-04
6.208966000000000008e-04
6.212852000000000261e-04
6.024872999999999600e-04
5.578531000000000071e-04
4.810985000000000153e-04
3.680821000000000245e-04
2.189047000000000117e-04
3.951140000000000256e-05
-1.581654999999999953e-04
-3.580203000000000118e-04
-5.431331999999999653e-04
-6.994396999999999637e-04
-8.183103999999999639e-04
-8.972563999999999497e-04
-9.389268000000000310e-04
7.172838999999999647e-04
7.479506999999999605e-04
7.650966999999999621e-04
7.601923000000000230e-04
7.225698000000000017e-04
6.408250999999999574e-04
5.058149999999999539e-04
3.148423000000000129e-04
7.537449999999999467e-05
-1.939968999999999992e-04
-4.667399999999999934e-04
-7.149357000000000064e-04
-9.164288000000000035e-04
-1.059428899999999936e-03
-1.143029299999999936e-03
-1.174436100000000090e-03
-1.164975400000000088e-03
7.860585999999999485e-04
8.456909999999999775e-04
9.012573999999999542e-04
9.453673000000000111e-04
9.663398999999999600e-04
9.475107999999999881e-04
8.684567000000000024e-04
7.097835999999999512e-04
4.616000999999999785e-04
1.323395999999999958e-04
-2.478402999999999791e-04
-6.329220999999999892e-04
-9.745882000000000416e-04
-1.236921100000000018e-03
-1.404773900000000093e-03
-1.482784800000000068e-03
-1.488044499999999952e-03
-1.441781199999999903e-03
-1.363576700000000046e-03
8.226101000000000203e-04
9.045569000000000266e-04
9.925975999999999983e-04
1.083295699999999983e-03
1.169121400000000099e-03
1.235563600000000057e-03
1.257861099999999909e-03
1.200032900000000055e-03
1.021365300000000092e-03
6.938336000000000243e-04
2.239925999999999940e-04
-3.365808999999999880e-04
-9.030216000000000414e-04
-1.387069199999999957e-03
-1.729052600000000007e-03
-1.913203899999999912e-03
-1.960294400000000149e-03
-1.908465800000000087e-03
-1.796366800000000034e-03
-1.654540500000000088e-03
-1.503649400000000051e-03
8.284046999999999461e-04
9.233467000000000410e-04
1.032090199999999899e-03
1.155716399999999911e-03
1.293664799999999981e-03
1.441142999999999981e-03
1.583806699999999908e-03
1.688742600000000009e-03
1.694797299999999942e-03
1.515887500000000004e-03
1.076851599999999968e-03
3.725779999999999825e-04
-5.013632999999999978e-04
-1.376770600000000021e-03
-2.082575799999999977e-03
-2.518588300000000092e-03
-2.682848199999999898e-03
-2.640198500000000021e-03
-2.472384700000000018e-03
-2.246434199999999912e-03
-2.006092699999999923e-03
-1.775484699999999938e-03
-1.565706199999999894e-03
9.082114000000000506e-04
1.025050399999999926e-03
1.163697300000000098e-03
1.329026799999999918e-03
1.526309800000000055e-03
1.759135599999999983e-03
2.022570699999999815e-03
2.285011799999999826e-03
2.452922000000000175e-03
-2.289419799999999842e-03
-3.341346700000000051e-03
-3.847234399999999860e-03
-3.877237400000000094e-03
-3.613066600000000052e-03
-3.220857000000000147e-03
-2.805518999999999808e-03
-2.418750400000000030e-03
-2.079705099999999869e-03
-1.791141700000000022e-03
9.838021000000000179e-04
1.122601100000000015e-03
1.291997999999999931e-03
1.501843500000000055e-03
1.766318999999999919e-03
2.105410600000000038e-03
2.543074700000000007e-03
-6.193100899999999867e-03
-5.758183899999999925e-03
-4.988982599999999649e-03
-4.185101000000000099e-03
-3.472009900000000166e-03
-2.880545500000000151e-03
-2.403164599999999939e-03
-2.021092700000000179e-03
-1.715011900000000099e-03
9.214120999999999596e-04
1.051230700000000025e-03
1.210153799999999892e-03
1.407947899999999978e-03
1.659460200000000040e-03
1.988757700000000090e-03
2.437777300000000015e-03
3.083669800000000093e-03
-8.686800999999999204e-03
-6.850842200000000284e-03
-5.351495900000000257e-03
-4.210926900000000125e-03
-3.359141600000000154e-03
-2.721256100000000056e-03
-2.238074899999999926e-03
-1.866716200000000103e-03
9.648604999999999552e-04
1.106756599999999960e-03
1.282111700000000080e-03
1.502677599999999994e-03
1.786589000000000102e-03
2.164214399999999944e-03
2.692856500000000153e-03
-9.115352099999999777e-03
-6.601791800000000356e-03
-4.933766600000000224e-03
-3.796825499999999937e-03
-2.997752099999999829e-03
-2.419420499999999988e-03
-1.989615399999999836e-03
9.968487000000000701e-04
1.147381000000000052e-03
1.334176700000000090e-03
1.569789000000000037e-03
1.872915699999999975e-03
2.273088999999999839e-03
2.822016499999999845e-03
-1.129900139999999963e-02
-7.662971000000000192e-03
-5.495824399999999985e-03
-4.116352200000000273e-03
-3.190210000000000181e-03
-2.540976700000000151e-03
-2.069469799999999835e-03
1.015908700000000067e-03
1.171174799999999926e-03
1.363930200000000028e-03
1.606617199999999922e-03
1.916653300000000035e-03
2.318107399999999943e-03
2.842055899999999889e-03
-1.247259470000000071e-02
-8.166097100000000233e-03
-5.738345899999999604e-03
-4.243848799999999991e-03
-3.261768400000000095e-03
-2.583200600000000111e-03
-2.095362400000000055e-03
-1.733194200000000035e-03
1.021311999999999914e-03
1.177300899999999921e-03
1.370651500000000028e-03
1.613391600000000032e-03
1.921814700000000009e-03
2.316821799999999997e-03
2.819882299999999786e-03
-1.190000100000000033e-02
-7.874329799999999630e-03
-5.572697799999999993e-03
-4.141986400000000415e-03
-3.195162899999999962e-03
-2.537482399999999895e-03
-2.062726999999999877e-03
-1.709135700000000103e-03
1.165850300000000062e-03
1.354717000000000074e-03
1.591242400000000010e-03
1.891586999999999913e-03
2.278400900000000177e-03
2.783712399999999955e-03
-9.871775899999999174e-03
-6.891687399999999776e-03
-5.042154400000000217e-03
-3.830931799999999932e-03
-3.000668199999999806e-03
-2.409447099999999925e-03
-1.974830500000000072e-03
-1.646659599999999958e-03
1.137710799999999949e-03
1.317264000000000065e-03
1.541291499999999925e-03
1.825689599999999902e-03
2.195237100000000090e-03
2.693409999999999815e-03
-7.395459400000000197e-03
-5.580255800000000384e-03
-4.295500399999999976e-03
-3.378703299999999930e-03
-2.712168599999999815e-03
-2.217203899999999929e-03
-1.841932500000000071e-03
1.094561800000000027e-03
1.260379700000000078e-03
1.465622300000000077e-03
1.724364200000000000e-03
2.059083599999999951e-03
2.509589799999999843e-03
3.155332600000000046e-03
-6.232024699999999875e-03
-5.236061400000000324e-03
-4.289582099999999718e-03
-3.498820900000000015e-03
-2.868720899999999824e-03
-2.373959200000000207e-03
-1.985505900000000129e-03
-1.678510999999999935e-03
1.038882400000000006e-03
1.187406000000000008e-03
1.368611199999999898e-03
1.593086999999999975e-03
1.876774899999999980e-03
2.244765100000000162e-03
2.736651599999999872e-03
-3.836076999999999803e-03
-3.911437200000000315e-03
-3.627035900000000115e-03
-3.204673199999999965e-03
-2.767665700000000121e-03
-2.369582800000000124e-03
-2.026779600000000025e-03
-1.738992200000000037e-03
-1.499835900000000017e-03
9.738050000000000048e-04
1.102824999999999986e-03
1.256932799999999940e-03
1.442612600000000005e-03
1.668283399999999925e-03
1.944090299999999983e-03
2.278731699999999791e-03
2.666173100000000015e-03
3.047734700000000099e-03
-5.214854999999999794e-04
-1.566731899999999900e-03
-2.217396600000000155e-03
-2.497267599999999834e-03
-2.509672599999999889e-03
-2.366989400000000035e-03
-2.153984700000000085e-03
-1.922528499999999908e-03
-1.699714599999999944e-03
-1.497405199999999898e-03
-1.319197600000000022e-03
1.011642099999999914e-03
1.138204999999999989e-03
1.285346900000000018e-03
1.455565100000000061e-03
1.649272000000000021e-03
1.860455800000000064e-03
2.067325499999999802e-03
2.217424400000000094e-03
2.218402099999999995e-03
1.965786699999999988e-03
1.421271200000000061e-03
6.681878999999999727e-04
-1.325564999999999903e-04
-8.302389000000000513e-04
-1.336638700000000041e-03
-1.633851499999999920e-03
-1.753597300000000071e-03
-1.747572699999999993e-03
-1.665258800000000029e-03
-1.544162900000000055e-03
-1.408865100000000065e-03
-1.273774600000000074e-03
9.185988000000000183e-04
1.019368199999999948e-03
1.131784499999999999e-03
1.254767699999999970e-03
1.384169700000000003e-03
1.509809100000000012e-03
1.611111599999999911e-03
1.653270099999999904e-03
1.589909999999999934e-03
1.379918699999999965e-03
1.015103999999999963e-03
5.362124999999999487e-04
1.910899999999999949e-05
-4.572002000000000141e-04
-8.369078999999999971e-04
-1.097235399999999927e-03
-1.243691500000000064e-03
-1.298157699999999892e-03
-1.287276099999999993e-03
-1.235081299999999955e-03
-1.160039000000000079e-03
9.056746999999999975e-04
9.889257999999999296e-04
1.074605099999999995e-03
1.157278799999999922e-03
1.227279599999999945e-03
1.269217999999999909e-03
1.261905900000000105e-03
1.181981900000000007e-03
1.012585199999999942e-03
7.540624999999999585e-04
4.291634000000000117e-04
7.751090000000000356e-05
-2.575041999999999934e-04
-5.414559999999999469e-04
-7.556420000000000541e-04
-8.970138999999999804e-04
-9.736672999999999942e-04
-9.991462000000000867e-04
-9.878737000000000282e-04
-9.525016000000000082e-04
8.603967999999999816e-04
9.180421999999999498e-04
9.682522999999999521e-04
1.003306000000000033e-03
1.012657900000000014e-03
9.837705999999999014e-04
9.047406000000000025e-04
7.686684999999999742e-04
5.781137999999999468e-04
3.468645999999999925e-04
9.732269999999999571e-05
-1.454340000000000038e-04
-3.599599999999999892e-04
-5.325253000000000495e-04
-6.580597999999999569e-04
-7.386044000000000463e-04
-7.806237999999999849e-04
7.845858000000000259e-04
8.128764999999999819e-04
8.264890999999999471e-04
8.184716999999999991e-04
7.814683000000000003e-04
7.093760999999999860e-04
5.995700000000000075e-04
4.548601999999999789e-04
2.840804999999999849e-04
1.007079999999999987e-04
-8.005819999999999863e-05
-2.445549999999999786e-04
-3.830487999999999840e-04
-4.906659999999999537e-04
-5.669741999999999968e-04
6.858441999999999750e-04
6.865943000000000003e-04
6.698023000000000431e-04
6.311630000000000148e-04
5.675670000000000498e-04
4.782556000000000090e-04
3.657142000000000162e-04
2.358384999999999952e-04
9.714949999999999541e-05
-4.074440000000000245e-05
-1.689068000000000004e-04
-2.804810000000000137e-04
5.173245999999999834e-04
4.620318000000000103e-04
3.887326999999999992e-04
2.994720999999999885e-04
1.983129000000000033e-04
9.086560000000000633e-05
1.730661999999999999e-04
7.791770000000000109e-05
-2.969120000000000128e-05
-1.444000999999999933e-04
-2.595556000000000057e-04
-3.682286000000000001e-04
4.463515000000000039e-04
3.985166999999999854e-04
3.278356999999999756e-04
2.327429999999999907e-04
1.143628999999999956e-04
-2.279689999999999852e-05
-1.709154000000000001e-04
-3.198920000000000062e-04
-4.591428000000000046e-04
-5.795808999999999857e-04
-6.751082999999999954e-04
5.847156999999999962e-04
5.810153999999999666e-04
5.583890999999999898e-04
5.105256999999999764e-04
4.314699000000000073e-04
3.173013000000000244e-04
1.681560000000000075e-04
-1.016610000000000080e-05
-2.059624999999999987e-04
-4.033325999999999947e-04
-5.854983999999999709e-04
-7.385115000000000256e-04
-8.538766999999999625e-04
-9.292602999999999974e-04
-9.674599999999999563e-04
6.781635000000000267e-04
7.030517000000000233e-04
7.142237999999999972e-04
7.036062999999999519e-04
6.611524999999999824e-04
5.761158000000000381e-04
4.398037000000000257e-04
2.495266999999999906e-04
1.230670000000000026e-05
-2.538689000000000115e-04
-5.228798999999999470e-04
