4.046686999999999767e-04
3.460404000000000149e-04
5.400055999999999650e-04
4.898645999999999990e-04
4.334631000000000139e-04
3.721217000000000188e-04
3.074218999999999780e-04
2.411015000000000022e-04
6.139148999999999995e-04
5.700794999999999821e-04
5.184779000000000254e-04
4.601354999999999790e-04
3.964441999999999879e-04
3.290840999999999753e-04
2.599090999999999880e-04
1.908110999999999933e-04
6.765798000000000168e-04
6.408895000000000173e-04
5.963655000000000215e-04
5.436320999999999818e-04
4.837463999999999870e-04
4.181588999999999987e-04
3.486300999999999810e-04
2.771094000000000205e-04
2.055903999999999891e-04
7.250146999999999755e-04
6.986002999999999527e-04
6.628308000000000507e-04
6.178833999999999802e-04
5.643843000000000167e-04
5.034128000000000127e-04
4.364613000000000151e-04
3.653484999999999936e-04
2.920934000000000247e-04
2.187636999999999872e-04
7.407374000000000206e-04
7.146045999999999648e-04
6.789068000000000099e-04
6.338089000000000093e-04
5.799363999999999995e-04
5.183806999999999478e-04
4.506571999999999922e-04
3.786169999999999835e-04
3.043181000000000163e-04
2.298707999999999947e-04
7.498472999999999857e-04
7.240082000000000115e-04
6.885215999999999776e-04
6.435462000000000083e-04
5.897056000000000346e-04
5.280916999999999773e-04
4.602229000000000216e-04
3.879547999999999807e-04
3.133513000000000097e-04
2.385312000000000109e-04
1.655105999999999938e-04
7.520641000000000218e-04
7.265162999999999613e-04
6.913696000000000425e-04
6.467838000000000059e-04
5.933781000000000168e-04
5.322340999999999531e-04
4.648521999999999875e-04
3.930645999999999771e-04
3.189083999999999908e-04
2.444761999999999955e-04
1.717624000000000006e-04
7.474133999999999682e-04
7.221495000000000084e-04
6.874633000000000219e-04
6.435214000000000082e-04
5.909369000000000037e-04
5.307695000000000078e-04
4.644828000000000043e-04
3.938588000000000245e-04
3.208770999999999911e-04
2.475717000000000000e-04
1.758845999999999999e-04
7.362204000000000231e-04
7.112378999999999620e-04
6.771268999999999899e-04
6.340656999999999760e-04
5.826584000000000320e-04
5.239329999999999725e-04
4.592988000000000214e-04
3.904647999999999821e-04
3.193259999999999849e-04
2.478296000000000166e-04
6.609587999999999575e-04
6.189932999999999677e-04
5.690791000000000382e-04
5.122036000000000167e-04
4.497074000000000102e-04
3.832077999999999938e-04
3.144938999999999808e-04
2.454029999999999948e-04
5.509370000000000413e-04
4.962512000000000303e-04
4.362928000000000184e-04
3.725738000000000140e-04
3.067615000000000207e-04
4.824666000000000132e-04
4.318613999999999916e-04
3.755804000000000065e-04
3.149445999999999865e-04
2.515096999999999884e-04
6.083999000000000091e-04
5.707982999999999590e-04
5.250151999999999467e-04
4.717332999999999986e-04
4.120377999999999736e-04
3.473748999999999934e-04
2.794696999999999850e-04
2.102074999999999961e-04
1.414937999999999970e-04
6.821152999999999505e-04
6.529384999999999963e-04
6.145103999999999974e-04
5.670744000000000132e-04
5.113262999999999836e-04
4.484186999999999830e-04
3.799191000000000265e-04
3.077196999999999940e-04
2.339033999999999872e-04
1.605826000000000031e-04
8.973639999999999688e-05
7.242905000000000003e-04
6.952513999999999483e-04
6.562112000000000370e-04
6.073724999999999654e-04
5.494379999999999663e-04
4.836204999999999888e-04
4.116006000000000178e-04
3.354286000000000160e-04
2.573753999999999821e-04
1.797519000000000026e-04
1.047241000000000025e-04
3.415490000000000057e-05
7.810836000000000038e-04
7.626783999999999517e-04
7.339163999999999584e-04
6.944746000000000339e-04
6.445140000000000027e-04
5.847399000000000086e-04
5.164165999999999982e-04
4.413250000000000072e-04
3.616568000000000235e-04
2.798518999999999963e-04
1.983998999999999908e-04
1.196358999999999975e-04
4.556609999999999730e-05
8.208805000000000225e-04
8.134130999999999523e-04
7.958871999999999648e-04
7.674971999999999741e-04
7.278515000000000158e-04
6.770733000000000350e-04
6.158675999999999647e-04
5.455405000000000193e-04
4.679551000000000218e-04
3.854198000000000194e-04
3.005145999999999772e-04
2.158773000000000007e-04
1.339843999999999974e-04
5.696270000000000267e-05
-1.353939999999999949e-05
8.428354000000000314e-04
8.456874000000000509e-04
8.393444000000000339e-04
8.226254999999999592e-04
7.946542999999999923e-04
7.549845999999999814e-04
7.037089999999999535e-04
6.415314000000000086e-04
5.697878000000000404e-04
4.904013000000000035e-04
4.057651000000000226e-04
3.185603999999999866e-04
2.315335000000000017e-04
1.472653999999999944e-04
6.797430000000000410e-05
-4.620399999999999842e-06
8.594607999999999892e-04
8.633337000000000042e-04
8.578626000000000220e-04
8.418136999999999799e-04
8.142632000000000342e-04
7.747293000000000365e-04
7.232846000000000240e-04
6.606319000000000470e-04
5.881241000000000160e-04
5.077178999999999590e-04
4.218528999999999942e-04
3.332666999999999986e-04
2.447665000000000019e-04
1.589942999999999966e-04
7.822469999999999662e-05
4.224600000000000176e-06
8.686733999999999558e-04
8.731611000000000450e-04
8.682505999999999774e-04
8.526850999999999788e-04
8.255215999999999466e-04
7.862643999999999796e-04
7.349789000000000452e-04
6.723667000000000012e-04
5.997834999999999538e-04
5.191904000000000224e-04
4.330324999999999778e-04
3.440540999999999760e-04
2.550723000000000074e-04
1.687430999999999870e-04
8.735909999999999509e-05
1.270819999999999972e-05
8.701858999999999723e-04
8.748497999999999735e-04
8.701578999999999651e-04
8.548629000000000514e-04
8.280313000000000083e-04
7.891766999999999619e-04
7.383701999999999800e-04
6.763116999999999913e-04
6.043446999999999535e-04
5.244054999999999854e-04
4.389031000000000161e-04
3.505394999999999800e-04
2.620901999999999932e-04
1.761776000000000054e-04
9.507329999999999655e-05
2.055809999999999888e-05
8.640429999999999942e-04
8.684479000000000374e-04
8.636349000000000413e-04
8.483966999999999811e-04
8.218379000000000482e-04
7.835023000000000421e-04
7.334782999999999668e-04
6.724628999999999546e-04
6.017727000000000059e-04
5.232913999999999751e-04
4.393534999999999737e-04
3.525733999999999878e-04
2.656375999999999789e-04
1.810898000000000022e-04
1.011428000000000034e-04
2.754269999999999974e-05
8.543639000000000008e-04
8.491234000000000498e-04
8.337534999999999651e-04
8.074208000000000470e-04
7.697173999999999770e-04
7.207570000000000383e-04
6.612318999999999532e-04
5.924180000000000461e-04
5.161220999999999691e-04
4.345718000000000259e-04
3.502552000000000139e-04
2.657288000000000163e-04
1.834189000000000067e-04
1.054452999999999982e-04
3.349360000000000065e-05
8.333213999999999596e-04
8.274066000000000276e-04
8.117620000000000521e-04
7.856348999999999885e-04
7.486781999999999769e-04
7.010362000000000017e-04
6.433927999999999566e-04
5.769713000000000098e-04
5.034822999999999686e-04
4.250209000000000018e-04
3.439191000000000188e-04
2.625718999999999991e-04
1.832566000000000099e-04
1.079720999999999958e-04
3.832050000000000012e-05
7.995256999999999538e-04
7.835220000000000379e-04
7.576139999999999871e-04
7.215227999999999963e-04
6.754245999999999774e-04
6.199902000000000191e-04
5.563807000000000041e-04
4.861964000000000194e-04
4.113817000000000190e-04
3.340926000000000139e-04
2.565404999999999877e-04
1.808314000000000048e-04
1.088225000000000038e-04
7.502949999999999984e-04
7.246552000000000071e-04
6.895518000000000003e-04
6.451910999999999627e-04
5.922257999999999906e-04
5.317469000000000232e-04
4.652352000000000007e-04
3.944743999999999920e-04
3.214326999999999896e-04
2.481257999999999749e-04
1.764756999999999882e-04
6.541096999999999623e-04
6.116466999999999998e-04
5.613430999999999890e-04
5.042147999999999552e-04
4.416178999999999786e-04
3.751714999999999976e-04
3.066529000000000130e-04
2.378783000000000091e-04
4.163239999999999801e-04
3.837855999999999733e-04
3.275687000000000000e-04
2.674996000000000231e-04
2.051142999999999955e-04
5.699200000000000186e-04
5.304351000000000335e-04
4.830142999999999741e-04
4.284057999999999768e-04
3.677516000000000248e-04
3.025422000000000050e-04
2.345302000000000064e-04
1.656085999999999919e-04
9.766969999999999764e-05
6.558278999999999758e-04
6.242743999999999941e-04
5.834069999999999794e-04
5.335340000000000048e-04
4.754283000000000098e-04
4.103294999999999751e-04
3.398974000000000027e-04
2.661149000000000023e-04
1.911445000000000060e-04
1.171585999999999933e-04
4.616810000000000271e-05
-2.012239999999999897e-05
7.325727000000000410e-04
7.110887000000000414e-04
6.794604999999999569e-04
6.374621000000000237e-04
5.853466999999999568e-04
5.239010000000000108e-04
4.544562999999999945e-04
3.788428999999999842e-04
2.992817000000000047e-04
2.182184000000000044e-04
1.381215999999999889e-04
6.127709999999999646e-05
-1.038429999999999983e-05
-7.540140000000000622e-05
7.959043999999999754e-04
7.858386999999999881e-04
7.654759000000000346e-04
7.340381999999999680e-04
6.911788999999999563e-04
6.370845999999999888e-04
5.725452000000000015e-04
4.989757999999999737e-04
4.183732000000000011e-04
3.331966999999999807e-04
2.461785999999999879e-04
1.600887999999999910e-04
7.749339999999999907e-05
5.526000000000000116e-07
-6.911190000000000486e-05
8.427156000000000534e-04
8.444255999999999811e-04
8.363812000000000416e-04
8.173179000000000034e-04
7.862982000000000131e-04
7.428492999999999555e-04
6.870838999999999896e-04
6.197871999999999670e-04
5.424492000000000376e-04
4.572232999999999766e-04
3.667974000000000061e-04
2.741805999999999952e-04
1.824348000000000105e-04
9.439829999999999369e-05
1.245350000000000028e-05
-6.162269999999999532e-05
-1.267118000000000020e-04
8.842652999999999581e-04
8.884786999999999676e-04
8.824612999999999598e-04
8.647816000000000010e-04
8.343479000000000216e-04
7.905644999999999556e-04
7.334703999999999833e-04
6.638411000000000095e-04
5.832314999999999808e-04
4.939357999999999813e-04
3.988484999999999947e-04
3.012301000000000215e-04
2.044082999999999924e-04
1.114692999999999934e-04
2.499879999999999857e-05
-5.308350000000000091e-05
-1.215812000000000007e-04
9.045753000000000127e-04
9.199361999999999557e-04
9.264368000000000472e-04
9.223156999999999623e-04
9.059928999999999769e-04
8.762388999999999768e-04
8.323477000000000132e-04
7.742918999999999583e-04
7.028371000000000271e-04
6.195918000000000129e-04
5.269679000000000203e-04
4.280318999999999769e-04
3.262536000000000234e-04
2.251820000000000134e-04
1.281111999999999941e-04
3.779900000000000181e-05
-4.371179999999999711e-05
-1.151548000000000041e-04
9.309115000000000402e-04
9.483684000000000254e-04
9.567884000000000024e-04
9.542946000000000501e-04
9.391875000000000267e-04
9.101270000000000497e-04
8.663196000000000395e-04
8.076857999999999911e-04
7.349842000000000094e-04
6.498642999999999911e-04
5.548248000000000416e-04
4.530579000000000182e-04
3.481843000000000199e-04
2.439141000000000030e-04
1.436945999999999981e-04
5.041420000000000260e-05
-3.378740000000000112e-05
-1.075838999999999984e-04
9.232958000000000311e-04
9.494523999999999629e-04
9.684316999999999795e-04
9.782695000000000973e-04
9.770104999999998981e-04
9.628742999999999504e-04
9.344473000000000276e-04
8.908793000000000137e-04
8.320595999999999982e-04
7.587441999999999581e-04
6.726084000000000229e-04
5.762007000000000413e-04
4.727816000000000136e-04
3.660533000000000211e-04
2.598143000000000240e-04
1.576001999999999958e-04
6.237990000000000223e-05
-2.364089999999999925e-05
-9.908890000000000601e-05
-1.633791999999999959e-04
9.324941000000000002e-04
9.595016999999999956e-04
9.793308000000001002e-04
9.899861000000000251e-04
9.894774000000000277e-04
9.759891999999999830e-04
9.480782999999999789e-04
9.048749000000000462e-04
8.462604999999999997e-04
7.729934999999999844e-04
6.867569999999999708e-04
5.901074000000000076e-04
4.863108999999999791e-04
3.790754999999999928e-04
2.722094999999999897e-04
1.692657000000000081e-04
7.323890000000000109e-05
-1.363420000000000068e-05
-8.994840000000000094e-05
-1.550903000000000015e-04
9.336220999999999800e-04
9.607269999999999786e-04
9.806842999999999984e-04
9.915074999999999323e-04
9.912179000000000562e-04
9.780140999999999574e-04
9.504703000000000197e-04
9.077351000000000430e-04
8.497062000000000538e-04
7.771479000000000407e-04
6.917313000000000021e-04
5.959776000000000179e-04
4.930962000000000105e-04
3.867257000000000030e-04
2.806058000000000163e-04
1.782362000000000063e-04
8.258039999999999966e-05
-4.130800000000000328e-06
-8.047839999999999844e-05
-1.458207000000000047e-04
9.267340000000000213e-04
9.531909000000000085e-04
9.725626999999999710e-04
9.829119000000000311e-04
9.823163000000001074e-04
9.690367999999999985e-04
9.417091000000000264e-04
8.995363999999999617e-04
8.424526999999999580e-04
7.712295999999999995e-04
6.875062000000000144e-04
5.937280999999999982e-04
4.929910999999999495e-04
3.887960999999999891e-04
2.847438000000000096e-04
1.842137999999999946e-04
9.008469999999999488e-05
4.542500000000000131e-06
-7.099949999999999675e-05
-1.358757000000000042e-04
9.373419000000000455e-04
9.554786000000000442e-04
9.647746000000000446e-04
9.634053999999999968e-04
9.497356000000000418e-04
9.225010999999999758e-04
8.809879999999999751e-04
8.251816000000000142e-04
7.558594000000000293e-04
6.746099000000000409e-04
5.837690000000000413e-04
4.862714999999999876e-04
3.854255999999999915e-04
2.846332000000000246e-04
1.870971999999999880e-04
9.556220000000000469e-05
1.213380000000000062e-05
-6.180249999999999654e-05
-1.255639000000000126e-04
9.139668999999999788e-04
9.303283000000000082e-04
9.380995999999999519e-04
9.355872999999999794e-04
9.212924000000000157e-04
8.940786999999999953e-04
8.533351999999999474e-04
7.991069000000000384e-04
7.321724999999999631e-04
6.540540000000000503e-04
5.669511000000000342e-04
4.736032000000000262e-04
3.770846999999999914e-04
2.805549999999999863e-04
1.869956999999999891e-04
9.897770000000000613e-05
1.849419999999999989e-05
-5.311750000000000092e-05
-1.151678000000000055e-04
8.982975000000000031e-04
9.042085000000000487e-04
9.003060999999999486e-04
8.852496000000000496e-04
8.580477000000000416e-04
8.182019000000000444e-04
7.658184999999999862e-04
7.016710999999999912e-04
6.272015000000000359e-04
5.444554999999999577e-04
4.559546999999999732e-04
3.645141000000000071e-04
2.730222000000000031e-04
1.842101999999999867e-04
1.004463999999999943e-04
2.358730000000000031e-05
-4.509729999999999934e-05
8.607468999999999971e-04
8.646068999999999500e-04
8.591961999999999646e-04
8.433432000000000471e-04
8.162077999999999478e-04
7.774045999999999734e-04
7.270971000000000422e-04
6.660458000000000394e-04
5.956024000000000084e-04
5.176472999999999795e-04
4.344735000000000068e-04
3.486251000000000107e-04
2.627066000000000167e-04
1.791836000000000101e-04
1.002059999999999957e-04
2.747660000000000049e-05
8.139345000000000521e-04
7.973407999999999538e-04
7.703799999999999797e-04
7.327739000000000214e-04
6.847347000000000156e-04
6.270011000000000030e-04
5.608272999999999557e-04
4.879236000000000120e-04
4.103523999999999779e-04
3.303871000000000000e-04
2.503478999999999752e-04
1.724332999999999877e-04
9.856959999999999897e-05
3.029850000000000137e-05
7.489079000000000265e-04
7.222672000000000293e-04
6.860113000000000365e-04
6.403904000000000410e-04
5.861128000000000171e-04
5.243309000000000251e-04
4.565853999999999941e-04
3.847133000000000085e-04
3.107257999999999787e-04
2.366694000000000078e-04
1.644837999999999921e-04
9.587640000000000246e-05
5.954935999999999867e-04
5.447339000000000261e-04
4.873612000000000256e-04
4.247513000000000070e-04
3.585263999999999899e-04
2.904507999999999873e-04
2.223142000000000000e-04
4.196283000000000088e-04
3.657884999999999826e-04
3.067200000000000178e-04
2.438647999999999966e-04
1.788791000000000133e-04
1.135209000000000061e-04
5.658937999999999859e-04
5.235278999999999584e-04
4.728097999999999806e-04
4.145807000000000268e-04
3.501118000000000112e-04
2.810512000000000036e-04
2.093251999999999927e-04
1.370003999999999970e-04
6.612369999999999847e-05
-1.434700000000000003e-06
6.868751000000000197e-04
6.626018000000000229e-04
6.284288000000000504e-04
5.842348000000000463e-04
5.303741000000000488e-04
4.677220000000000054e-04
3.976766000000000068e-04
3.221057999999999951e-04
2.432342000000000098e-04
1.634762000000000053e-04
8.523770000000000554e-05
1.071680000000000046e-05
-5.825939999999999992e-05
7.645641999999999803e-04
7.517033999999999695e-04
7.284505000000000147e-04
6.940938999999999920e-04
6.483682999999999634e-04
5.915544000000000227e-04
5.245436999999999496e-04
4.488550000000000114e-04
3.665844999999999933e-04
2.802791000000000115e-04
1.927373000000000020e-04
1.067641000000000033e-04
2.492369999999999991e-05
-5.066480000000000321e-05
-1.184544999999999956e-04
8.281948000000000348e-04
8.279087999999999769e-04
8.174976000000000248e-04
7.956823999999999494e-04
7.615350999999999588e-04
7.146210000000000279e-04
6.551219000000000270e-04
5.839263000000000136e-04
5.026641999999999569e-04
4.136628000000000267e-04
3.198078000000000249e-04
2.243087999999999961e-04
1.304025999999999905e-04
4.104879999999999906e-05
-4.132019999999999785e-05
-1.149514000000000053e-04
-1.788136999999999919e-04
8.745965000000000076e-04
8.869391999999999597e-04
8.901604000000000027e-04
8.825273999999999489e-04
8.625087000000000248e-04
8.289420999999999725e-04
7.812023999999999661e-04
7.193526999999999474e-04
6.442613999999999503e-04
5.576570999999999568e-04
4.620948000000000264e-04
3.608045000000000046e-04
2.574200000000000121e-04
1.556259000000000104e-04
5.879200000000000224e-05
-3.032600000000000069e-05
-1.097652000000000041e-04
-1.783998000000000127e-04
-2.358720000000000077e-04
9.261496000000000138e-04
9.425406999999999796e-04
9.493947000000000193e-04
9.447319999999999936e-04
9.267645000000000136e-04
8.940873000000000006e-04
8.458743999999999595e-04
7.820588000000000279e-04
7.034762000000000393e-04
6.119425999999999642e-04
5.102298000000000120e-04
4.019027999999999902e-04
2.910117999999999841e-04
1.816824999999999940e-04
7.768840000000000652e-05
-1.789759999999999954e-05
-1.029079999999999980e-04
-1.761264000000000015e-04
-2.371999000000000123e-04
9.448332999999999515e-04
9.727947999999999717e-04
9.930856000000000926e-04
1.003498800000000076e-03
1.001819799999999986e-03
9.860121999999999377e-04
9.544338999999999558e-04
9.060611000000000316e-04
8.406970999999999845e-04
7.591409999999999608e-04
6.632860000000000188e-04
5.561014999999999882e-04
4.414600000000000186e-04
3.237943999999999978e-04
2.076356000000000013e-04
9.712870000000000401e-05
-4.361199999999999851e-06
-9.447750000000000473e-05
-1.719180999999999964e-04
-2.363330000000000021e-04
9.812582999999999289e-04
1.012822999999999935e-03
1.036635200000000012e-03
1.050308800000000070e-03
1.051419199999999903e-03
1.037705799999999933e-03
1.007311299999999986e-03
9.590332000000000457e-04
8.925587999999999491e-04
8.086562000000000047e-04
7.092857999999999845e-04
5.975865999999999817e-04
4.776898999999999815e-04
3.543485999999999771e-04
2.324321000000000069e-04
1.163978000000000056e-04
9.859100000000000185e-06
-8.466239999999999768e-05
-1.657858000000000010e-04
-2.331560999999999953e-04
-2.872304999999999802e-04
9.701398000000000183e-04
1.010137199999999996e-03
1.044652600000000068e-03
1.071377799999999932e-03
1.087783099999999970e-03
1.091273700000000048e-03
1.079405600000000066e-03
1.050146399999999985e-03
1.002150600000000034e-03
9.350173000000000035e-04
8.494956000000000122e-04
7.476027000000000106e-04
6.326066999999999888e-04
5.088281999999999744e-04
3.812501000000000041e-04
2.549860000000000147e-04
1.347218000000000016e-04
2.425990000000000129e-05
-7.374590000000000149e-05
-1.578433999999999870e-04
-2.276606999999999936e-04
-2.836803999999999953e-04
9.883099000000000224e-04
1.030344699999999900e-03
1.066965600000000002e-03
1.095790799999999971e-03
1.114192699999999982e-03
1.119458899999999915e-03
1.109019699999999956e-03
1.080724199999999989e-03
1.033135599999999901e-03
9.658024000000000079e-04
8.794713000000000443e-04
7.762011000000000518e-04
6.593363999999999779e-04
5.333001999999999665e-04
4.031943999999999763e-04
2.742616000000000238e-04
1.513168000000000011e-04
3.827919999999999766e-05
-6.210440000000000123e-05
-1.483191000000000077e-04
-2.199628000000000076e-04
-2.775154999999999961e-04
9.979895000000000779e-04
1.041094300000000106e-03
1.078834899999999960e-03
1.108796100000000034e-03
1.128305100000000054e-03
1.134595499999999915e-03
1.125041499999999972e-03
1.097444400000000073e-03
1.050337500000000099e-03
9.832631000000000964e-04
8.969810000000000370e-04
7.935706000000000487e-04
6.763916999999999499e-04
5.498710999999999877e-04
4.191094999999999825e-04
2.893543999999999955e-04
1.654414000000000047e-04
5.132759999999999965e-05
-5.019130000000000173e-05
-1.375509999999999981e-04
-2.103061999999999889e-04
-2.689055000000000091e-04
9.988683999999998977e-04
1.042014900000000051e-03
1.079820300000000101e-03
1.109878500000000077e-03
1.129528099999999903e-03
1.136017299999999902e-03
1.126740499999999943e-03
1.099527099999999917e-03
1.052945999999999917e-03
9.865767000000000980e-04
9.012037999999999993e-04
7.989015999999999609e-04
6.829800000000000237e-04
5.577722999999999926e-04
4.282598999999999889e-04
2.995736999999999944e-04
1.764622999999999995e-04
6.283899999999999924e-05
-3.850110000000000311e-05
-1.259614999999999899e-04
-1.990454999999999970e-04
-2.581438999999999934e-04
9.910143000000000164e-04
1.033186699999999979e-03
1.070015400000000035e-03
1.099145699999999962e-03
1.117983300000000013e-03
1.123859100000000090e-03
1.114261999999999978e-03
1.087122199999999896e-03
1.041104300000000047e-03
9.758613999999999873e-04
8.922093999999999555e-04
7.921891000000000349e-04
6.790007999999999721e-04
5.567977999999999903e-04
4.303388000000000005e-04
3.045301999999999731e-04
1.839338000000000041e-04
7.233980000000000152e-05
-2.750959999999999831e-05
-1.140085999999999980e-04
-1.866074999999999917e-04
-2.456185000000000269e-04
9.748639999999999823e-04
1.015130900000000029e-03
1.050035400000000081e-03
1.077313400000000018e-03
1.094489400000000058e-03
1.099037200000000042e-03
1.088605600000000072e-03
1.061286299999999929e-03
1.015886199999999984e-03
9.521583999999999604e-04
8.709488000000000256e-04
7.742387999999999571e-04
6.650697999999999593e-04
5.473478999999999844e-04
4.255285999999999834e-04
3.042066999999999753e-04
1.876729000000000103e-04
7.952240000000000285e-05
-1.760659999999999843e-05
-1.021268000000000062e-04
-1.734402000000000068e-04
-2.317681999999999945e-04
9.887528999999999502e-04
1.020945400000000019e-03
1.045617499999999941e-03
1.060455199999999929e-03
1.063124500000000097e-03
1.051482999999999975e-03
1.023827200000000008e-03
9.791368999999998986e-04
9.172769000000000538e-04
8.391174000000000376e-04
7.465571999999999746e-04
6.424437000000000507e-04
5.303900999999999755e-04
4.144942000000000201e-04
2.989778000000000227e-04
1.877973000000000121e-04
8.429449999999999736e-05
-9.042099999999999368e-06
-9.067280000000000370e-05
-1.599627000000000058e-04
-2.170384999999999990e-04
9.552500000000000444e-04
9.841451000000001059e-04
1.005671099999999899e-03
1.017708200000000049e-03
1.018147999999999970e-03
1.005088500000000072e-03
9.770543999999999063e-04
9.332115000000000419e-04
8.735363999999999803e-04
7.989127999999999855e-04
7.111385000000000015e-04
6.128444000000000036e-04
5.073252000000000534e-04
3.982914000000000268e-04
2.895573000000000135e-04
1.847050999999999945e-04
8.678349999999999335e-05
-1.904899999999999965e-06
-7.989420000000000495e-05
-1.465279999999999903e-04
-2.018424999999999907e-04
9.412301999999999995e-04
9.592964000000000265e-04
9.682930999999999873e-04
9.663561999999999890e-04
9.518371000000000080e-04
9.234949999999999800e-04
8.806791999999999485e-04
8.234689999999999588e-04
7.527474999999999618e-04
6.701978000000000362e-04
5.782216999999999869e-04
4.797867000000000256e-04
3.782074999999999868e-04
2.768797000000000250e-04
1.789961000000000124e-04
8.729189999999999682e-05
3.861399999999999994e-06
-6.992500000000000560e-05
-1.334057999999999891e-04
9.083595999999999554e-04
9.142800999999999879e-04
9.100004000000000296e-04
8.941233000000000253e-04
8.656341999999999596e-04
8.240526000000000188e-04
7.695446999999999574e-04
7.029784999999999983e-04
6.259116999999999589e-04
5.405133999999999807e-04
4.494267000000000249e-04
3.555787000000000249e-04
2.619548999999999879e-04
1.713637000000000005e-04
8.622439999999999391e-05
8.414400000000000278e-06
-6.080549999999999914e-05
8.576089999999999538e-04
8.511624999999999877e-04
8.341349000000000289e-04
8.057195000000000502e-04
7.655856999999999636e-04
7.139676000000000182e-04
6.517038999999999862e-04
5.802201000000000320e-04
5.014554999999999967e-04
4.177407999999999968e-04
3.316352000000000059e-04
2.457370999999999753e-04
1.624902000000000117e-04
8.401069999999999849e-05
1.196130000000000015e-05
-5.251309999999999702e-05
7.916423999999999813e-04
7.737367000000000420e-04
7.456421999999999876e-04
7.071545999999999735e-04
6.585563999999999481e-04
6.006447000000000262e-04
5.347098000000000215e-04
4.624691999999999800e-04
3.859603000000000187e-04
3.074015000000000146e-04
2.290356000000000065e-04
1.529715999999999975e-04
8.104449999999999968e-05
6.502132000000000311e-04
6.047039000000000364e-04
5.511062999999999856e-04
4.905769000000000362e-04
4.246238000000000052e-04
3.550137999999999992e-04
2.836566999999999908e-04
2.124758000000000029e-04
1.432795999999999961e-04
3.886534999999999881e-04
3.949547999999999883e-04
3.389522999999999972e-04
2.778503999999999783e-04
2.131803999999999893e-04
1.466812000000000009e-04
8.017829999999999771e-05
5.859615999999999566e-04
5.498974999999999913e-04
5.048112999999999689e-04
4.511779999999999957e-04
3.899381000000000266e-04
3.224837000000000038e-04
2.505963000000000049e-04
1.763362999999999942e-04
1.018910999999999976e-04
2.940309999999999975e-05
-3.919799999999999977e-05
6.824777000000000404e-04
6.559276000000000386e-04
6.189582000000000330e-04
5.714760000000000152e-04
5.139072999999999645e-04
4.472438999999999820e-04
3.730412000000000224e-04
2.933554999999999800e-04
2.106149999999999884e-04
1.274321000000000026e-04
4.638130000000000264e-05
-3.021859999999999897e-05
-1.004806000000000015e-04
-1.630551999999999902e-04
7.711178000000000390e-04
7.567302000000000143e-04
7.312192000000000344e-04
6.938203999999999682e-04
6.442671000000000509e-04
5.828985000000000503e-04
5.107325000000000233e-04
4.294820000000000191e-04
3.414976000000000014e-04
2.496210999999999808e-04
1.569553000000000116e-04
6.658089999999999809e-05
-1.872810000000000116e-05
-9.673179999999999431e-05
-1.658580000000000102e-04
-2.252312999999999928e-04
8.465818999999999862e-04
8.460903999999999994e-04
8.346392000000000437e-04
8.107934000000000018e-04
7.735113999999999749e-04
7.223069000000000147e-04
6.573902999999999865e-04
5.797728999999999730e-04
4.913117000000000482e-04
3.946636999999999802e-04
2.931256000000000248e-04
1.903548000000000024e-04
9.001040000000000137e-05
-4.611600000000000028e-06
-9.087149999999999893e-05
-1.669514999999999888e-04
-2.318835999999999901e-04
-2.854639999999999760e-04
9.045993999999999910e-04
9.184984999999999677e-04
9.224955000000000177e-04
9.145984000000000015e-04
8.930335999999999873e-04
8.564417000000000167e-04
8.040734000000000119e-04
7.359679000000000047e-04
6.530950999999999467e-04
5.574361999999999807e-04
4.519589999999999871e-04
3.404467000000000214e-04
2.271651999999999981e-04
1.164158999999999978e-04
1.207289999999999922e-05
-8.278560000000000237e-05
-1.660792999999999872e-04
-2.367496000000000075e-04
-2.946413999999999739e-04
9.425676000000000453e-04
9.700174999999999466e-04
9.893737000000000104e-04
9.982999999999999253e-04
9.944585999999999183e-04
9.757118000000000388e-04
9.403505000000000153e-04
8.873273000000000315e-04
8.164751000000000257e-04
7.286910999999999866e-04
6.260594000000000185e-04
5.118545000000000169e-04
3.903625999999999884e-04
2.664918999999999752e-04
1.452265999999999963e-04
3.105429999999999844e-05
-7.248639999999999771e-05
-1.630462000000000111e-04
-2.394805999999999920e-04
-3.016936999999999809e-04
-3.503892000000000096e-04
9.598580999999999910e-04
9.988517000000000576e-04
1.032026799999999963e-03
1.056970300000000060e-03
1.071047199999999953e-03
1.071569600000000068e-03
1.056023400000000037e-03
1.022331800000000077e-03
9.691295999999999852e-04
8.960220000000000077e-04
8.038143000000000198e-04
6.946764000000000020e-04
5.721778999999999754e-04
4.411029000000000013e-04
3.070028999999999944e-04
1.755476000000000063e-04
5.183890000000000270e-05
-6.012710000000000239e-05
-1.577377999999999994e-04
-2.397684999999999931e-04
-3.061868999999999941e-04
-3.578521999999999888e-04
1.005465799999999930e-03
1.049785699999999933e-03
1.088442600000000000e-03
1.118809899999999996e-03
1.137971300000000094e-03
1.142900500000000033e-03
1.130712899999999953e-03
1.098966000000000049e-03
1.045976400000000030e-03
9.711224999999999979e-04
8.751158000000000417e-04
7.602044000000000292e-04
6.302328000000000487e-04
4.904504999999999759e-04
3.470079000000000154e-04
2.062125000000000047e-04
7.373680000000000186e-05
-4.599869999999999719e-05
-1.501360999999999939e-04
-2.373754999999999908e-04
-3.077406999999999994e-04
-3.622324999999999916e-04
-4.024672000000000080e-04
9.922407999999999749e-04
1.044411899999999954e-03
1.093463399999999950e-03
1.137040499999999923e-03
1.172333900000000102e-03
1.196178399999999918e-03
1.205240800000000057e-03
1.196294699999999895e-03
1.166558700000000070e-03
1.114056800000000043e-03
1.037965899999999941e-03
9.389224000000000485e-04
8.192524999999999764e-04
6.830453999999999909e-04
5.359479999999999583e-04
3.846147999999999754e-04
2.358860999999999911e-04
9.591429999999999748e-05
-3.051820000000000200e-05
-1.403378000000000101e-04
-2.321697000000000008e-04
-3.060749999999999994e-04
-3.631649000000000032e-04
-4.052039000000000118e-04
1.019474999999999939e-03
1.075216500000000103e-03
1.128117299999999981e-03
1.175732999999999986e-03
1.215111500000000009e-03
1.242886699999999926e-03
1.255472099999999916e-03
1.249355499999999907e-03
1.221472099999999956e-03
1.169608699999999954e-03
1.092789899999999917e-03
9.916118999999999715e-04
8.684816999999999624e-04
7.276839000000000007e-04
5.751587000000000062e-04
4.179186000000000207e-04
2.631822000000000024e-04
1.174499000000000018e-04
-1.422040000000000025e-05
-1.285771000000000060e-04
-2.241675000000000048e-04
-3.010590999999999853e-04
-3.604292000000000151e-04
-4.041412999999999993e-04
1.038415499999999951e-03
1.096658400000000057e-03
1.152274100000000041e-03
1.202761299999999993e-03
1.245072500000000016e-03
1.275702700000000108e-03
1.290887199999999962e-03
1.286911800000000014e-03
1.260515299999999915e-03
1.209330200000000065e-03
1.132299200000000091e-03
1.030020399999999900e-03
9.049753999999999481e-04
7.615732999999999748e-04
6.059088000000000017e-04
4.451689999999999792e-04
2.867610000000000146e-04
1.373757999999999934e-04
2.243699999999999795e-06
-1.152499999999999960e-04
-2.135705000000000112e-04
-2.927552000000000257e-04
-3.539937000000000053e-04
-3.991899000000000250e-04
1.048367799999999975e-03
1.107887299999999993e-03
1.164899600000000044e-03
1.216879599999999909e-03
1.260736200000000000e-03
1.292898900000000097e-03
1.309516900000000025e-03
1.306781500000000085e-03
1.281347599999999943e-03
1.230798200000000030e-03
1.154075899999999939e-03
1.051820200000000037e-03
9.265668000000000341e-04
7.827570000000000274e-04
6.264808999999999873e-04
4.649001999999999844e-04
3.054081999999999739e-04
1.547180000000000050e-04
1.812029999999999996e-05
-1.009179000000000049e-04
-2.007803000000000062e-04
-2.814383999999999853e-04
-3.440378000000000012e-04
-3.904596999999999777e-04
1.049009999999999960e-03
1.108506800000000044e-03
1.165507899999999961e-03
1.217497199999999962e-03
1.261394400000000020e-03
1.293641600000000093e-03
1.310404499999999993e-03
1.307899699999999976e-03
1.282824099999999934e-03
1.232824300000000088e-03
1.156922699999999920e-03
1.055829600000000087e-03
9.321002000000000107e-04
7.901069999999999621e-04
6.357776000000000096e-04
4.760572999999999931e-04
3.181322000000000099e-04
1.685718999999999911e-04
3.260990000000000096e-05
-8.626700000000000600e-05
-1.863711999999999953e-04
-2.675797000000000158e-04
-3.309424999999999845e-04
-3.782557999999999775e-04
1.040421799999999980e-03
1.098614099999999962e-03
1.154215400000000022e-03
1.204751499999999953e-03
1.247206700000000074e-03
1.278113800000000048e-03
1.293756799999999912e-03
1.290496400000000054e-03
1.265192299999999938e-03
1.215658199999999954e-03
1.141062399999999899e-03
1.042200000000000071e-03
9.216043000000000152e-04
7.834861999999999729e-04
6.334777999999999677e-04
4.781478999999999829e-04
3.243084000000000136e-04
1.782329999999999993e-04
4.497999999999999964e-05
-7.201449999999999974e-05
-1.710151000000000086e-04
-2.517888000000000244e-04
-3.152472999999999929e-04
-3.630473000000000163e-04
1.023073999999999902e-03
1.078786900000000071e-03
1.131725500000000046e-03
1.179489900000000018e-03
1.219180100000000081e-03
1.247491899999999968e-03
1.260919000000000102e-03
1.256068200000000010e-03
1.230061800000000014e-03
1.180959199999999940e-03
1.108116900000000009e-03
1.012413999999999892e-03
8.963216000000000412e-04
7.638179999999999839e-04
6.201448999999999720e-04
4.713796000000000023e-04
3.238313000000000042e-04
1.833491000000000027e-04
5.470719999999999690e-05
-5.878469999999999979e-05
-1.553782000000000026e-04
-2.347286999999999876e-04
-2.975823000000000053e-04
-3.454132999999999748e-04
1.050021099999999975e-03
1.099246699999999926e-03
1.143163599999999979e-03
1.179034100000000062e-03
1.203777600000000047e-03
1.214169699999999991e-03
1.207139600000000073e-03
1.180138899999999937e-03
1.131519600000000089e-03
1.060842200000000060e-03
9.690570999999999820e-04
8.585389999999999602e-04
7.329879000000000299e-04
5.971996999999999939e-04
4.566926000000000123e-04
3.171885999999999738e-04
1.840188999999999942e-04
6.158359999999999767e-05
-4.700349999999999814e-05
-1.400227000000000036e-04
-2.170302999999999946e-04
-2.785948999999999912e-04
-3.259814999999999892e-04
1.013628500000000095e-03
1.058359100000000070e-03
1.097656100000000056e-03
1.128981800000000094e-03
1.149525399999999902e-03
1.156392900000000100e-03
1.146880799999999917e-03
1.118803299999999914e-03
1.070818899999999947e-03
1.002686800000000085e-03
9.154073999999999458e-04
8.112322000000000153e-04
6.935576000000000154e-04
5.667110000000000159e-04
4.356235999999999876e-04
3.053908999999999834e-04
1.807731999999999991e-04
6.573759999999999890e-05
-3.685320000000000148e-05
-1.253487000000000015e-04
-1.992279999999999973e-04
-2.588865999999999889e-04
-3.053703999999999859e-04
1.010856400000000000e-03
1.045080899999999971e-03
1.071478000000000057e-03
1.087534700000000049e-03
1.090712100000000009e-03
1.078689500000000034e-03
1.049646800000000055e-03
1.002537900000000049e-03
9.372996999999999666e-04
8.549576000000000354e-04
7.576186999999999635e-04
6.483646000000000027e-04
5.310534000000000001e-04
4.100330000000000229e-04
2.897711999999999879e-04
1.744449000000000076e-04
6.756260000000000260e-05
-2.829669999999999964e-05
-1.115853999999999972e-04
-1.817316000000000135e-04
-2.389748000000000078e-04
9.585883000000000121e-04
9.875871000000000909e-04
1.008981699999999962e-03
1.020568599999999897e-03
1.020166299999999970e-03
1.005828500000000014e-03
9.760812000000000221e-04
9.301465999999999554e-04
8.681087999999999782e-04
7.909924999999999725e-04
7.007444000000000259e-04
6.001293999999999466e-04
4.925501000000000532e-04
3.817960000000000017e-04
2.717357000000000214e-04
1.659828000000000128e-04
6.759269999999999406e-05
-2.115029999999999975e-05
-9.882299999999999895e-05
-1.648297999999999918e-04
-2.192774000000000090e-04
9.271991000000000043e-04
9.437700000000000256e-04
9.511412000000000339e-04
9.474743000000000097e-04
9.311716000000000481e-04
9.010711999999999932e-04
8.566269999999999961e-04
7.980373000000000241e-04
7.263015000000000053e-04
6.431952000000000112e-04
5.511723999999999747e-04
4.532032999999999982e-04
3.525587999999999964e-04
2.525548999999999763e-04
1.562846000000000114e-04
6.637819999999999409e-05
-1.516700000000000064e-05
-8.706289999999999613e-05
-1.487121999999999956e-04
8.778139999999999814e-04
8.813859000000000277e-04
8.748983999999999581e-04
8.570659999999999694e-04
8.269978999999999785e-04
7.843394000000000277e-04
7.293706000000000061e-04
6.630451000000000530e-04
5.869621000000000430e-04
5.032768999999999654e-04
4.145584999999999917e-04
3.236064999999999992e-04
2.332411000000000055e-04
1.460896000000000048e-04
6.439789999999999545e-05
-1.010350000000000076e-05
-7.626270000000000423e-05
8.041956999999999751e-04
7.852942999999999599e-04
7.556311000000000234e-04
7.150038000000000270e-04
6.637448999999999476e-04
6.027466999999999461e-04
5.334329000000000067e-04
4.576779999999999911e-04
3.776861999999999754e-04
2.958368999999999864e-04
2.145147000000000080e-04
1.359390999999999941e-04
6.201800000000000151e-05
-5.758200000000000197e-06
6.881749999999999630e-04
6.497583999999999825e-04
6.022150999999999459e-04
5.463663999999999804e-04
4.834660999999999755e-04
4.151315000000000148e-04
3.432403000000000212e-04
2.698038999999999733e-04
1.968294999999999897e-04
1.261860000000000011e-04
4.375000999999999890e-04
3.760157999999999990e-04
3.115484000000000070e-04
3.618313999999999862e-04
3.044821999999999763e-04
2.423383000000000037e-04
1.769848999999999934e-04
1.101957999999999996e-04
4.380910000000000040e-05
5.604864000000000417e-04
5.220671000000000079e-04
4.745980000000000120e-04
4.186406000000000046e-04
3.552340999999999875e-04
2.858733999999999928e-04
2.124360000000000105e-04
1.370606999999999869e-04
6.198820000000000393e-05
-1.061710000000000038e-05
-7.883499999999999991e-05
6.640945000000000095e-04
6.349653000000000241e-04
5.951342000000000524e-04
5.445734000000000468e-04
4.838077000000000198e-04
4.139564999999999998e-04
3.367218999999999855e-04
2.543126000000000154e-04
1.692994999999999873e-04
8.441209999999999773e-05
2.303700000000000068e-06
-7.467510000000000608e-05
-1.446525000000000046e-04
-2.063358999999999907e-04
7.623286999999999642e-04
7.457028000000000528e-04
7.174176999999999464e-04
6.767096999999999696e-04
6.233604999999999485e-04
5.578105000000000086e-04
4.812288999999999759e-04
3.955238999999999825e-04
3.032703000000000091e-04
2.075427999999999876e-04
1.116593999999999969e-04
1.887059999999999852e-05
-6.794560000000000215e-05
-1.465218999999999972e-04
-2.153318000000000040e-04
-2.736034999999999834e-04
8.491606000000000501e-04
8.474233999999999543e-04
8.340196999999999932e-04
8.074147999999999525e-04
7.665146000000000286e-04
7.108426999999999628e-04
6.406930000000000134e-04
5.572396999999999767e-04
4.625809999999999948e-04
3.596844999999999882e-04
2.522019999999999817e-04
1.441499000000000003e-04
3.950009999999999811e-05
-5.823230000000000149e-05
-1.463085000000000037e-04
-2.229334000000000025e-04
-2.872619999999999883e-04
-3.392795000000000099e-04
9.192516000000000402e-04
9.334919000000000333e-04
9.371069999999999574e-04
9.278926000000000274e-04
9.038883000000000377e-04
8.636003999999999859e-04
8.062221000000000274e-04
7.318300999999999713e-04
6.415436000000000489e-04
5.376196000000000186e-04
4.234325000000000155e-04
3.032808000000000118e-04
1.819939000000000127e-04
6.439650000000000593e-05
-4.524249999999999924e-05
-1.436354000000000038e-04
-2.286874999999999954e-04
-2.994879000000000096e-04
-3.561370000000000226e-04
-3.994884000000000087e-04
9.688087999999999865e-04
9.985782000000000339e-04
1.019705600000000078e-03
1.029550900000000043e-03
1.025455300000000089e-03
1.004978099999999938e-03
9.661624999999999640e-04
9.078006000000000443e-04
8.296793999999999697e-04
7.327968000000000242e-04
6.195242999999999800e-04
4.936441000000000396e-04
3.601591000000000124e-04
2.248184000000000022e-04
9.342510000000000105e-05
-2.888949999999999843e-05
-1.382211000000000106e-04
-2.321527000000000042e-04
-3.097207999999999841e-04
-3.711736000000000202e-04
-4.176326000000000170e-04
9.961450999999999639e-04
1.039530400000000018e-03
1.076896599999999917e-03
1.105488699999999979e-03
1.122258099999999927e-03
1.124062699999999913e-03
1.107938500000000106e-03
1.071412400000000022e-03
1.012816599999999921e-03
9.315858000000000212e-04
8.285363000000000450e-04
7.061091999999999716e-04
5.684835000000000062e-04
4.214042999999999999e-04
2.716201999999999918e-04
1.260074000000000025e-04
-9.362099999999999692e-06
-1.299233999999999968e-04
-2.329289999999999920e-04
-3.173792000000000258e-04
-3.836970000000000094e-04
-4.332987999999999857e-04
-4.681767999999999997e-04
1.001781900000000072e-03
1.055781200000000062e-03
1.106600400000000038e-03
1.151696499999999967e-03
1.188014700000000062e-03
1.212100700000000048e-03
1.220316099999999970e-03
1.209146900000000009e-03
1.175567800000000031e-03
1.117412300000000022e-03
1.033725000000000095e-03
9.251046999999999656e-04
7.940313999999999749e-04
6.450657000000000266e-04
4.847022999999999891e-04
3.207158999999999900e-04
1.610879000000000065e-04
1.285220000000000038e-05
-1.187615000000000046e-04
-2.306838000000000020e-04
-3.218920999999999805e-04
-3.929963999999999767e-04
-4.457142999999999891e-04
-4.823769999999999794e-04
1.049175799999999903e-03
1.109713700000000041e-03
1.167618700000000063e-03
1.220180200000000031e-03
1.264071700000000097e-03
1.295454199999999988e-03
1.310202199999999963e-03
1.304248100000000073e-03
1.274002800000000046e-03
1.216791500000000007e-03
1.131267200000000105e-03
1.017814799999999971e-03
8.789534000000000539e-04
7.196096999999999824e-04
5.469932999999999523e-04
3.698527000000000173e-04
1.972118999999999879e-04
3.700740000000000079e-05
-1.049107000000000051e-04
-2.251747999999999977e-04
-3.227425000000000020e-04
-3.983977000000000091e-04
-4.541367000000000255e-04
-4.926031000000000203e-04
1.089582800000000020e-03
1.155902600000000089e-03
1.220138200000000020e-03
1.279446999999999963e-03
1.330272499999999919e-03
1.368433399999999982e-03
1.389354599999999967e-03
1.388443299999999941e-03
1.361570199999999949e-03
1.305580300000000081e-03
1.218776200000000042e-03
1.101378899999999952e-03
9.559784000000000424e-04
7.878489999999999712e-04
6.048244999999999620e-04
4.164757999999999741e-04
2.326979000000000070e-04
6.218330000000000482e-05
-8.868920000000000460e-05
-2.162861000000000026e-04
-3.195308999999999801e-04
-3.993388999999999858e-04
-4.579313999999999911e-04
-4.982089999999999999e-04
-5.232710999999999916e-04
1.051048099999999990e-03
1.121462799999999992e-03
1.192459400000000017e-03
1.261860799999999904e-03
1.326731299999999933e-03
1.383337400000000028e-03
1.427220299999999980e-03
1.453426100000000101e-03
1.456908100000000065e-03
1.433067799999999947e-03
1.378345499999999958e-03
1.290779799999999984e-03
1.170513200000000047e-03
1.020254300000000055e-03
8.455830000000000117e-04
6.547986999999999688e-04
4.580459000000000050e-04
2.658208000000000012e-04
8.735460000000000555e-05
-7.057090000000000563e-05
-2.040904000000000069e-04
-3.120617000000000009e-04
-3.954634999999999856e-04
-4.566603000000000025e-04
-4.987311000000000131e-04
-5.249544000000000302e-04
1.070248700000000011e-03
1.143549900000000088e-03
1.217814200000000074e-03
1.290852299999999987e-03
1.359673199999999896e-03
1.420426899999999897e-03
1.468462100000000057e-03
1.498551500000000047e-03
1.505315099999999942e-03
1.483812400000000071e-03
1.430209499999999948e-03
1.342406900000000071e-03
1.220569699999999929e-03
1.067557100000000045e-03
8.891663000000000388e-04
6.939354999999999699e-04
4.922604999999999602e-04
2.949089999999999915e-04
1.113954000000000008e-04
-5.123809999999999991e-05
-1.889311999999999979e-04
-3.004355999999999802e-04
-3.867103000000000099e-04
-4.501644999999999757e-04
-4.939592999999999718e-04
-5.214686999999999968e-04
1.080227499999999964e-03
1.154967800000000072e-03
1.230870599999999999e-03
1.305746599999999978e-03
1.376584400000000060e-03
1.439482200000000026e-03
1.489694499999999911e-03
1.521855799999999965e-03
1.530417500000000016e-03
1.510279000000000005e-03
1.457510200000000037e-03
1.370025100000000010e-03
1.248103699999999995e-03
1.094749099999999930e-03
9.158353000000000370e-04
7.198671999999999710e-04
5.171426000000000451e-04
3.183589000000000124e-04
1.330503000000000024e-04
-3.163340000000000108e-05
-1.714831000000000048e-04
-2.851101000000000199e-04
-3.733704999999999923e-04
-4.386149000000000211e-04
-4.839819999999999886e-04
-5.128484999999999468e-04
1.080665400000000104e-03
1.155314699999999972e-03
1.231120800000000100e-03
1.305903699999999990e-03
1.376663300000000078e-03
1.439510300000000067e-03
1.489711600000000104e-03
1.521915100000000021e-03
1.530595999999999953e-03
1.510706500000000068e-03
1.458422200000000085e-03
1.371821000000000065e-03
1.251362300000000106e-03
1.100145500000000026e-03
9.239542000000000111e-04
7.309921000000000040e-04
5.311374999999999473e-04
3.347027000000000032e-04
1.509867000000000023e-04
-1.291780000000000022e-05
-1.527207000000000098e-04
-2.668794000000000049e-04
-3.560775999999999872e-04
-4.225095000000000109e-04
-4.691874000000000066e-04
-4.993957999999999731e-04
1.071651399999999990e-03
1.144701699999999944e-03
1.218702199999999961e-03
1.291489800000000104e-03
1.360107200000000007e-03
1.420741600000000092e-03
1.468778800000000067e-03
1.499033400000000012e-03
1.506196900000000101e-03
1.485482999999999899e-03
1.433358999999999935e-03
1.348186300000000018e-03
1.230630199999999987e-03
1.083815799999999965e-03
9.132857999999999558e-04
7.267324999999999610e-04
5.333660999999999958e-04
3.428525999999999774e-04
1.640178000000000003e-04
3.720399999999999989e-06
-1.337649000000000108e-04
-2.467565000000000014e-04
-3.357197000000000241e-04
-4.026098000000000090e-04
-4.502191000000000005e-04
-4.816482000000000077e-04
1.053670700000000062e-03
1.123739199999999969e-03
1.194378999999999970e-03
1.263455900000000007e-03
1.328088500000000009e-03
1.384604100000000034e-03
1.428606900000000107e-03
1.455215699999999959e-03
1.459504300000000025e-03
1.437117099999999943e-03
1.384947799999999927e-03
1.301710300000000079e-03
1.188265599999999969e-03
1.047694500000000009e-03
8.851955000000000327e-04
7.078248999999999999e-04
5.239685999999999693e-04
3.424551999999999870e-04
1.714336999999999914e-04
1.735110000000000062e-05
-1.156480999999999948e-04
-2.257873999999999992e-04
-3.132958000000000032e-04
-3.798324999999999857e-04
-4.278932000000000048e-04
-4.603176000000000056e-04
1.093470899999999905e-03
1.159454199999999935e-03
1.223418700000000010e-03
1.282595699999999894e-03
1.333512200000000090e-03
1.372076799999999907e-03
1.393821599999999937e-03
1.394321900000000105e-03
1.369760200000000100e-03
1.317526799999999909e-03
1.236702899999999987e-03
1.128310800000000046e-03
9.953301000000000336e-04
8.425620999999999675e-04
6.763780999999999743e-04
5.042703000000000159e-04
3.341172999999999799e-04
1.732437000000000029e-04
2.753680000000000036e-05
-9.910460000000000655e-05
-2.048712999999999912e-04
-2.897667000000000255e-04
-3.551265999999999754e-04
-4.031013999999999756e-04
-4.362125999999999916e-04
1.055268299999999933e-03
1.115626100000000022e-03
1.173467799999999926e-03
1.226174600000000002e-03
1.270525700000000018e-03
1.302800100000000042e-03
1.319014400000000000e-03
1.315311100000000032e-03
1.288454999999999982e-03
1.236343399999999910e-03
1.158399899999999934e-03
1.055762299999999905e-03
9.312659000000000041e-04
7.892945000000000169e-04
6.355334000000000027e-04
4.765753999999999975e-04
3.193132999999999909e-04
1.701738000000000003e-04
3.438909999999999911e-05
-8.447849999999999424e-05
-1.846527999999999950e-04
-2.659456999999999837e-04
-3.293727999999999782e-04
-3.767207999999999863e-04
-4.101625000000000019e-04
1.010703400000000085e-03
1.064818900000000018e-03
1.115940200000000012e-03
1.161633000000000023e-03
1.198969100000000067e-03
1.224638099999999933e-03
1.235174899999999997e-03
1.227305099999999967e-03
1.198368100000000037e-03
1.146736499999999933e-03
1.072129200000000076e-03
9.757508000000000023e-04
8.602596000000000331e-04
7.296152999999999667e-04
5.888392000000000322e-04
4.436603000000000118e-04
3.000122000000000140e-04
1.634233999999999980e-04
3.843910000000000268e-05
-7.176700000000000592e-05
-1.655089000000000104e-04
-2.424523999999999896e-04
-3.033212000000000191e-04
-3.495487000000000030e-04
1.009014099999999952e-03
1.053203900000000042e-03
1.091766000000000091e-03
1.122089599999999930e-03
1.141290500000000053e-03
1.146420599999999979e-03
1.134766400000000080e-03
1.104199500000000106e-03
1.053512300000000040e-03
9.826623999999999515e-04
8.928755999999999932e-04
7.866066000000000117e-04
6.673916000000000223e-04
5.396195000000000332e-04
4.082151000000000009e-04
2.782230000000000228e-04
1.543287999999999919e-04
4.041400000000000304e-05
-6.075019999999999986e-05
-1.476059999999999959e-04
-2.197211000000000129e-04
-2.775709000000000227e-04
-3.222666000000000224e-04
9.874796000000000788e-04
1.019141500000000054e-03
1.042806399999999991e-03
1.056009099999999932e-03
1.056291599999999989e-03
1.041453799999999966e-03
1.009836899999999940e-03
9.605873999999999706e-04
8.938448999999999570e-04
8.108160000000000107e-04
7.137323000000000105e-04
6.057136000000000074e-04
4.905559000000000308e-04
3.724525000000000123e-04
2.556518000000000245e-04
1.440854999999999946e-04
4.102939999999999718e-05
-5.112969999999999939e-05
-1.309821000000000076e-04
-1.980394000000000067e-04
-2.525769999999999773e-04
9.459623999999999810e-04
9.635616000000000276e-04
9.714457999999999817e-04
9.676024000000000517e-04
9.502828999999999747e-04
9.182281000000000254e-04
8.708718000000000058e-04
8.084824000000000437e-04
7.322147999999999678e-04
6.440674999999999656e-04
5.467592000000000285e-04
4.435396999999999777e-04
3.379502000000000157e-04
2.335443999999999997e-04
1.336002999999999887e-04
4.086359999999999954e-05
-4.262799999999999912e-05
-1.156168000000000007e-04
-1.775907000000000071e-04
8.862639999999999971e-04
8.896110000000000042e-04
8.824214000000000146e-04
8.633318000000000068e-04
8.314118999999999806e-04
7.863202999999999599e-04
7.284083999999999698e-04
6.587554000000000456e-04
5.791264999999999651e-04
4.918640999999999855e-04
3.997251000000000059e-04
3.056795999999999862e-04
2.126859000000000095e-04
1.234668000000000018e-04
4.031609999999999843e-05
-3.503469999999999848e-05
-1.014735000000000035e-04
8.021366999999999733e-04
7.819352999999999807e-04
7.506401000000000436e-04
7.080785999999999938e-04
6.546483999999999984e-04
5.913376999999999609e-04
5.196868999999999794e-04
4.416949999999999783e-04
3.596830000000000188e-04
2.761285000000000042e-04
1.934860000000000106e-04
1.140135000000000020e-04
3.962480000000000049e-05
-2.821139999999999895e-05
6.366637000000000077e-04
5.876142999999999688e-04
5.302799000000000184e-04
4.659915000000000259e-04
3.964417999999999827e-04
3.235736000000000016e-04
2.494455000000000023e-04
1.760898999999999960e-04
1.053781999999999934e-04
2.644678999999999823e-04
2.023802999999999908e-04
1.375438000000000095e-04
4.837767999999999994e-04
4.344786999999999911e-04
3.770080999999999996e-04
3.124908000000000134e-04
2.424926000000000100e-04
1.689369999999999988e-04
9.397599999999999606e-05
1.982840000000000145e-05
-5.139489999999999814e-05
-1.178502000000000054e-04
6.321430000000000495e-04
6.003059999999999950e-04
5.577619000000000240e-04
5.045819000000000215e-04
4.414086000000000008e-04
3.694874000000000227e-04
2.906407000000000174e-04
2.071754999999999886e-04
1.217256000000000056e-04
3.704039999999999861e-05
-4.425110000000000057e-05
-1.198603999999999951e-04
-1.880053000000000073e-04
-2.474981999999999811e-04
7.376368000000000117e-04
7.181244999999999512e-04
6.866689999999999947e-04
6.425682000000000052e-04
5.857056999999999715e-04
5.166627000000000025e-04
4.367781999999999849e-04
3.481415999999999873e-04
2.534993000000000142e-04
1.560668999999999880e-04
5.925490000000000081e-05
-3.365190000000000217e-05
-1.197999999999999982e-04
-1.969983999999999874e-04
-2.638342000000000226e-04
-3.196701999999999942e-04
8.343099999999999995e-04
8.301680000000000517e-04
8.138327999999999578e-04
7.837449000000000455e-04
7.388349999999999692e-04
6.787132000000000191e-04
6.038241000000000181e-04
5.155496000000000080e-04
4.162371999999999795e-04
3.091214000000000114e-04
1.981100999999999923e-04
8.743260000000000040e-05
-1.879740000000000065e-05
-1.170119999999999971e-04
-2.045109999999999940e-04
-2.796154000000000131e-04
-3.416493000000000156e-04
-3.907919999999999948e-04
9.159538000000000055e-04
9.289818000000000034e-04
9.307451000000000006e-04
9.188993000000000334e-04
8.913802999999999874e-04
8.466532000000000138e-04
7.839515000000000242e-04
7.034845999999999764e-04
6.065966999999999583e-04
4.958553000000000092e-04
3.750156000000000149e-04
2.487945999999999777e-04
1.224258999999999894e-04
1.061299999999999901e-06
-1.108354000000000061e-04
-2.099384000000000092e-04
-2.942608000000000203e-04
-3.631072999999999853e-04
-4.168519000000000196e-04
-4.566343000000000268e-04
9.775935000000000787e-04
1.007929899999999946e-03
1.029070800000000041e-03
1.038127900000000107e-03
1.032191499999999965e-03
1.008603700000000082e-03
9.652614999999999806e-04
9.009108000000000480e-04
8.154077000000000026e-04
7.099479999999999593e-04
5.872460999999999610e-04
4.515850000000000072e-04
3.086059000000000263e-04
1.647541999999999887e-04
2.646069999999999892e-05
-1.007086999999999934e-04
-2.126775999999999981e-04
-3.071147000000000091e-04
-3.833376000000000209e-04
-4.419838000000000152e-04
-4.845922000000000120e-04
-5.132045999999999483e-04
1.016311900000000084e-03
1.062357000000000102e-03
1.102124400000000035e-03
1.132553099999999936e-03
1.150226700000000091e-03
1.151608400000000065e-03
1.133364200000000054e-03
1.092726100000000061e-03
1.027842499999999902e-03
9.380935000000000402e-04
8.243963000000000202e-04
6.895083000000000201e-04
5.382187000000000516e-04
3.771948000000000228e-04
2.143059999999999909e-04
5.751500000000000075e-05
-8.630099999999999924e-05
-2.121981999999999905e-04
-3.174796000000000020e-04
-4.015191999999999893e-04
-4.652918999999999827e-04
-5.108127000000000500e-04
-5.406281999999999885e-04
1.031622600000000039e-03
1.090345900000000033e-03
1.146077899999999993e-03
1.195989499999999903e-03
1.236621399999999951e-03
1.264008799999999898e-03
1.273940899999999972e-03
1.262337199999999946e-03
1.225679900000000008e-03
1.161425800000000057e-03
1.068371299999999920e-03
9.470328000000000513e-04
8.000999999999999866e-04
6.328255000000000078e-04
4.529787000000000071e-04
2.700364999999999818e-04
9.371280000000000170e-05
-6.763270000000000046e-05
-2.081073999999999923e-04
-3.246484999999999801e-04
-4.167363000000000100e-04
-4.857478000000000251e-04
-5.342323000000000384e-04
-5.652844000000000185e-04
-5.820852999999999748e-04
1.092827599999999979e-03
1.160504300000000022e-03
1.226041499999999933e-03
1.286391200000000078e-03
1.337718199999999961e-03
1.375510799999999983e-03
1.394856600000000078e-03
1.390875100000000001e-03
1.359230699999999922e-03
1.296620100000000098e-03
1.201188599999999940e-03
1.072978399999999959e-03
9.145375000000000509e-04
7.315438999999999536e-04
5.329037999999999917e-04
3.298034000000000143e-04
1.338215999999999928e-04
-4.512489999999999888e-05
-2.001775999999999924e-04
-3.279318000000000033e-04
-4.280120000000000213e-04
-5.022314000000000379e-04
-5.536949999999999901e-04
-5.860530000000000080e-04
-6.029763999999999957e-04
1.073046700000000048e-03
1.148089199999999992e-03
1.224257799999999919e-03
1.299219199999999963e-03
1.369750999999999998e-03
1.431684899999999998e-03
1.479989300000000016e-03
1.509051300000000071e-03
1.513161600000000051e-03
1.487122100000000044e-03
1.426832999999999964e-03
1.329780399999999944e-03
1.195546600000000010e-03
1.026552200000000088e-03
8.288977000000000107e-04
6.126023999999999879e-04
3.905138999999999746e-04
1.760060999999999885e-04
-1.952710000000000147e-05
-1.883270999999999947e-04
-3.266825000000000219e-04
-4.343659999999999947e-04
-5.136074000000000455e-04
-5.680340000000000302e-04
-6.018141999999999546e-04
-6.190724999999999787e-04
1.113674800000000100e-03
1.195319000000000026e-03
1.279034999999999981e-03
1.362471600000000069e-03
1.442284000000000057e-03
1.514030900000000067e-03
1.572219400000000053e-03
1.610577300000000074e-03
1.622580200000000054e-03
1.602161499999999903e-03
1.544432699999999901e-03
1.446280799999999931e-03
1.306946100000000053e-03
1.128844200000000009e-03
9.185371000000000117e-04
6.870466999999999894e-04
4.486321999999999836e-04
2.181588000000000093e-04
8.245400000000000710e-06
-1.725885000000000028e-04
-3.203526000000000268e-04
-4.349183000000000064e-04
-5.188461000000000331e-04
-5.761925999999999897e-04
-6.115591000000000516e-04
-6.294525999999999507e-04
1.145642299999999987e-03
1.232593799999999983e-03
1.322430400000000009e-03
1.412811599999999916e-03
1.500320299999999968e-03
1.580315699999999910e-03
1.646934199999999923e-03
1.693337500000000008e-03
1.712266899999999922e-03
1.696853400000000039e-03
1.641497999999999916e-03
1.542622800000000060e-03
1.399325799999999930e-03
1.214206100000000043e-03
9.943165000000000336e-04
7.514457999999999468e-04
5.008057999999999477e-04
2.582439999999999757e-04
3.722309999999999942e-05
-1.531550000000000066e-04
-3.086240999999999984e-04
-4.290523999999999987e-04
-5.171880000000000227e-04
-5.773733000000000511e-04
-6.145175000000000333e-04
-6.334099000000000153e-04
-6.383371999999999571e-04
1.081970700000000046e-03
1.167698100000000034e-03
1.258325000000000025e-03
1.352430400000000088e-03
1.447698500000000037e-03
1.540681899999999998e-03
1.626617500000000077e-03
1.699387199999999971e-03
1.751736000000000048e-03
1.775838999999999977e-03
1.764199400000000069e-03
1.710691799999999917e-03
1.611486899999999955e-03
1.465774200000000051e-03
1.276495899999999977e-03
1.051126899999999973e-03
8.018359999999999984e-04
5.441760999999999820e-04
2.943646000000000175e-04
6.628329999999999606e-05
-1.305637999999999916e-04
-2.916185999999999865e-04
-4.166172999999999795e-04
-5.083222999999999561e-04
-5.711880000000000342e-04
-6.102797999999999773e-04
-6.305484000000000089e-04
-6.364244999999999711e-04
1.091724099999999897e-03
1.178983599999999972e-03
1.271412300000000078e-03
1.367623799999999942e-03
1.465325499999999915e-03
1.561068299999999976e-03
1.650039999999999970e-03
1.725998199999999923e-03
1.781466999999999903e-03
1.808310299999999924e-03
1.798696100000000053e-03
1.746275499999999994e-03
1.647247899999999994e-03
1.501104999999999974e-03
1.311183600000000041e-03
1.085164299999999893e-03
8.350945999999999717e-04
5.762159000000000204e-04
3.245158999999999739e-04
9.389140000000000029e-05
-1.059299000000000037e-04
-2.700949000000000015e-04
-3.980893000000000105e-04
-4.925170999999999672e-04
-5.577619999999999497e-04
-5.988805999999999730e-04
-6.208493999999999515e-04
-6.281404999999999671e-04
1.092008999999999905e-03
1.179112200000000023e-03
1.271356699999999984e-03
1.367362100000000039e-03
1.464847700000000046e-03
1.560380099999999918e-03
1.649163900000000021e-03
1.724968199999999969e-03
1.780318300000000020e-03
1.807078499999999893e-03
1.797456399999999930e-03
1.745254300000000005e-03
1.646994500000000103e-03
1.502609200000000087e-03
1.315757000000000081e-03
1.094019899999999984e-03
8.488331000000000435e-04
5.945599000000000196e-04
3.464426000000000159e-04
1.180123000000000017e-04
-8.099139999999999844e-05
-2.454706000000000075e-04
-3.745854999999999866e-04
-4.706328000000000182e-04
-5.377494000000000458e-04
-5.808140000000000264e-04
-6.046864000000000319e-04
-6.137684000000000238e-04
1.082919400000000032e-03
1.168205299999999953e-03
1.258311999999999929e-03
1.351837399999999967e-03
1.446499300000000064e-03
1.538896299999999986e-03
1.624313999999999966e-03
1.696667700000000032e-03
1.748710699999999913e-03
1.772627599999999914e-03
1.761043799999999953e-03
1.708267199999999927e-03
1.611371099999999931e-03
1.470764199999999907e-03
1.290281299999999996e-03
1.077138700000000076e-03
8.418234000000000350e-04
5.974374999999999868e-04
3.580691999999999903e-04
1.365053000000000024e-04
-5.777729999999999991e-05
-2.195627999999999979e-04
-3.476729000000000234e-04
-4.439865999999999886e-04
-5.122384999999999916e-04
-5.569697999999999880e-04
-5.827815000000000512e-04
-5.938922000000000125e-04
1.146875699999999913e-03
1.233065499999999939e-03
1.322058099999999905e-03
1.411566200000000017e-03
1.498244900000000011e-03
1.577529700000000062e-03
1.643614700000000078e-03
1.689688300000000056e-03
1.708531400000000032e-03
1.693487999999999938e-03
1.639617699999999919e-03
1.544652699999999896e-03
1.409423099999999960e-03
1.237789800000000046e-03
1.036456899999999926e-03
8.148380999999999463e-04
5.845978000000000155e-04
3.583831000000000213e-04
1.478829000000000135e-04
-3.800230000000000036e-05
-1.941289999999999975e-04
-3.190293999999999986e-04
-4.141063999999999965e-04
-4.825756999999999746e-04
-5.285061000000000186e-04
-5.561140999999999480e-04
-5.693300999999999787e-04
1.116164499999999955e-03
1.196948399999999899e-03
1.279724299999999981e-03
1.362211600000000095e-03
1.441160199999999992e-03
1.512230499999999995e-03
1.570016100000000067e-03
1.608307000000000009e-03
1.620673900000000082e-03
1.601357500000000038e-03
1.546274299999999928e-03
1.453806700000000000e-03
1.325103000000000001e-03
1.163937600000000076e-03
9.764640000000000212e-04
7.710485000000000429e-04
5.579008000000000101e-04
3.480789999999999991e-04
1.519132000000000078e-04
-2.255019999999999968e-05
-1.704444000000000109e-04
-2.901086000000000094e-04
-3.824697999999999748e-04
-4.501632000000000203e-04
-4.966950000000000141e-04
-5.258036000000000220e-04
-5.410461000000000307e-04
1.077437899999999973e-03
1.151693500000000028e-03
1.227028800000000072e-03
1.301197899999999904e-03
1.371093899999999968e-03
1.432676400000000051e-03
1.481035400000000040e-03
1.510671699999999911e-03
1.516043599999999892e-03
1.492343799999999981e-03
1.436333900000000014e-03
1.346967799999999969e-03
1.225603700000000044e-03
1.075853899999999969e-03
9.033288999999999902e-04
7.154251999999999617e-04
5.209705000000000022e-04
3.294236999999999881e-04
1.496438000000000054e-04
-1.134689999999999973e-05
-1.491230000000000019e-04
-2.619453000000000211e-04
-3.503175000000000082e-04
-4.162934999999999878e-04
-4.627828999999999970e-04
-4.929945000000000247e-04
1.099265899999999968e-03
1.166424400000000026e-03
1.231566699999999933e-03
1.291780699999999990e-03
1.343386399999999935e-03
1.382033099999999994e-03
1.402979699999999967e-03
1.401584200000000058e-03
1.373955000000000055e-03
1.317617299999999979e-03
1.231993399999999940e-03
1.118557899999999931e-03
9.807064999999999793e-04
8.235119999999999853e-04
6.534712000000000463e-04
4.781396000000000257e-04
3.054741999999999831e-04
1.428993999999999891e-04
-3.626699999999999937e-06
-1.302115000000000119e-04
-2.351414999999999983e-04
-3.185813000000000121e-04
-3.820540999999999781e-04
-4.278907999999999995e-04
-4.587645000000000221e-04
1.041692699999999900e-03
1.100397199999999989e-03
1.156341100000000000e-03
1.206851299999999990e-03
1.248648900000000079e-03
1.277966599999999942e-03
1.290813999999999937e-03
1.283398700000000069e-03
1.252654499999999917e-03
1.196759400000000067e-03
1.115501199999999931e-03
1.010394699999999984e-03
8.845749000000000407e-04
7.425713999999999492e-04
5.900344000000000508e-04
4.333693000000000115e-04
2.791917999999999787e-04
1.336293999999999915e-04
1.641300000000000066e-06
-1.134314999999999998e-04
-2.099747000000000007e-04
-2.879057999999999769e-04
-3.482986999999999997e-04
-3.929618999999999755e-04
-4.240639000000000040e-04
1.031280699999999892e-03
1.078292700000000031e-03
1.119549500000000019e-03
1.152189899999999951e-03
1.173019400000000108e-03
1.178750400000000030e-03
1.166352199999999908e-03
1.133468899999999979e-03
1.078815299999999998e-03
1.002451199999999975e-03
9.058706000000000137e-04
7.919134000000000199e-04
6.645623999999999715e-04
5.286722999999999900e-04
3.896236999999999878e-04
2.528748999999999732e-04
1.234401000000000042e-04
5.401899999999999898e-06
-9.841490000000000535e-05
-1.865361999999999912e-04
-2.587143999999999772e-04
-3.156640999999999852e-04
-3.587484999999999958e-04
9.997916999999998961e-04
1.032568599999999972e-03
1.057006099999999909e-03
1.070446000000000071e-03
1.070229900000000105e-03
1.053983799999999929e-03
1.019942100000000062e-03
9.672456999999999539e-04
8.961452999999999867e-04
8.080663999999999989e-04
7.055349000000000472e-04
5.919977999999999786e-04
4.715747000000000168e-04
3.487478999999999818e-04
2.279981999999999951e-04
1.134139999999999953e-04
8.341299999999999233e-06
-8.484969999999999503e-05
-1.648386999999999910e-04
-2.312771000000000087e-04
-2.846047999999999894e-04
9.479923000000000342e-04
9.653300000000000292e-04
9.725740999999999553e-04
9.676106999999999547e-04
9.486142999999999615e-04
9.142952999999999671e-04
8.641214999999999834e-04
7.984666000000000506e-04
7.186544000000000222e-04
6.268941999999999787e-04
5.261276999999999534e-04
4.198114999999999768e-04
3.116535999999999937e-04
2.053210000000000083e-04
1.041447999999999994e-04
1.086680000000000072e-05
-7.252850000000000193e-05
-1.448716999999999974e-04
-2.057595000000000008e-04
8.786851999999999944e-04
8.809062000000000532e-04
8.723217999999999597e-04
8.515528000000000507e-04
8.176830000000000383e-04
7.704225000000000526e-04
7.102140000000000276e-04
6.382595999999999496e-04
5.564654000000000475e-04
4.673125000000000087e-04
3.736753000000000101e-04
2.786050000000000202e-04
1.850968999999999998e-04
9.586779999999999716e-05
1.316900000000000046e-05
-6.133639999999999774e-05
-1.266185999999999874e-04
7.850570000000000291e-04
7.633334999999999990e-04
7.304682000000000276e-04
6.863442999999999671e-04
6.314321999999999817e-04
5.668048000000000183e-04
4.940883999999999771e-04
4.153577999999999893e-04
3.329874999999999827e-04
2.494784999999999798e-04
1.672761000000000094e-04
8.859970000000000486e-05
1.530339999999999988e-05
-5.121569999999999823e-05
6.115660000000000193e-04
5.616898000000000377e-04
5.037886000000000100e-04
4.392391999999999738e-04
3.697657999999999826e-04
2.973218000000000237e-04
2.239529999999999885e-04
1.516557999999999990e-04
8.224720000000000089e-05
3.871225999999999856e-04
3.291365999999999888e-04
2.647079000000000207e-04
1.954294000000000029e-04
1.232116999999999913e-04
5.015189999999999666e-05
-2.162419999999999872e-05
-9.012490000000000171e-05
5.884142999999999882e-04
5.540150000000000413e-04
5.091981000000000198e-04
4.541543000000000099e-04
3.896452999999999809e-04
3.170210999999999927e-04
2.381774999999999875e-04
1.554493999999999960e-04
7.144420000000000284e-05
-1.116800000000000048e-05
-8.987919999999999829e-05
-1.625453999999999972e-04
-2.275327000000000111e-04
6.980559999999999586e-04
6.752473000000000156e-04
6.405124000000000104e-04
5.932665000000000161e-04
5.335383999999999873e-04
4.620722000000000176e-04
3.803708999999999736e-04
2.906650000000000097e-04
1.957941000000000098e-04
9.900119999999999667e-05
3.652799999999999992e-06
-8.707190000000000231e-05
-1.704680000000000084e-04
-2.445109999999999905e-04
-3.079515000000000008e-04
-3.602977999999999845e-04
7.989636999999999954e-04
8.020117999999999909e-04
7.944090000000000439e-04
7.743290000000000329e-04
7.402720000000000437e-04
6.912762999999999937e-04
6.271115999999999540e-04
5.484288999999999831e-04
4.568438999999999985e-04
3.549342000000000144e-04
2.461246999999999849e-04
1.344418000000000110e-04
2.414489999999999985e-05
-8.071049999999999915e-05
-1.766855000000000010e-04
-2.612545999999999770e-04
-3.329321000000000103e-04
-3.912313000000000162e-04
-4.365004000000000128e-04
8.741070999999999780e-04
8.935629999999999962e-04
9.037096000000000321e-04
9.020827000000000359e-04
8.862930000000000200e-04
8.542768000000000063e-04
8.045675000000000179e-04
7.365498999999999527e-04
6.506685999999999590e-04
5.485693000000000470e-04
4.331528999999999978e-04
3.084954000000000212e-04
1.795768000000000050e-04
5.179880000000000286e-05
-6.963400000000000449e-05
-1.803193999999999934e-04
-2.770898000000000046e-04
-3.581802999999999832e-04
-4.231460999999999838e-04
-4.726080000000000125e-04
-5.079248000000000400e-04
9.310224000000000191e-04
9.667445999999999462e-04
9.955242000000000865e-04
1.014552599999999933e-03
1.020778300000000065e-03
1.011142299999999916e-03
9.828867999999999286e-04
9.338970999999999731e-04
8.630220999999999986e-04
7.703455000000000328e-04
6.574025000000000268e-04
5.273335000000000088e-04
3.848980999999999800e-04
2.362142999999999925e-04
8.813960000000000566e-05
-5.261710000000000145e-05
-1.803936000000000070e-04
-2.912065000000000248e-04
-3.829713999999999905e-04
-4.553452000000000259e-04
-5.093332000000000111e-04
-5.468191999999999975e-04
-5.701359999999999501e-04
9.671324999999999497e-04
1.017386799999999954e-03
1.063752600000000045e-03
1.103468200000000095e-03
1.133226499999999935e-03
1.149322199999999999e-03
1.147922900000000095e-03
1.125447099999999940e-03
1.078983699999999961e-03
1.006681300000000041e-03
9.080737999999999657e-04
7.843808000000000507e-04
6.388169000000000399e-04
4.767980999999999912e-04
3.057685999999999781e-04
1.344208000000000056e-04
-2.858519999999999865e-05
-1.759627999999999952e-04
-3.027164999999999739e-04
-4.064159000000000131e-04
-4.869094000000000243e-04
-5.457271000000000084e-04
-5.854203000000000098e-04
-6.089923999999999598e-04
1.043786500000000060e-03
1.104931400000000105e-03
1.163099400000000040e-03
1.215210800000000044e-03
1.257450499999999971e-03
1.285407900000000003e-03
1.294386000000000017e-03
1.279856000000000006e-03
1.237971000000000037e-03
1.166020999999999941e-03
1.062789900000000055e-03
9.289266000000000450e-04
7.674688000000000473e-04
5.843857000000000045e-04
3.886203999999999765e-04
1.911322000000000129e-04
3.050200000000000036e-06
-1.663079999999999940e-04
-3.107434000000000173e-04
-4.274834000000000142e-04
-5.166886000000000525e-04
-5.805727999999999583e-04
-6.224997000000000126e-04
-6.462533999999999813e-04
-6.555429000000000421e-04
1.046788400000000022e-03
1.118715900000000034e-03
1.191291500000000092e-03
1.262070099999999936e-03
1.327695000000000047e-03
1.383856200000000000e-03
1.425410300000000104e-03
1.446719699999999978e-03
1.442196699999999995e-03
1.406932500000000015e-03
1.337225800000000102e-03
1.230938999999999905e-03
1.087897300000000098e-03
9.106671999999999467e-04
7.056061000000000407e-04
4.832936000000000241e-04
2.573871000000000145e-04
4.200019999999999811e-05
-1.511469999999999947e-04
-3.145123000000000211e-04
-4.450284999999999896e-04
-5.433048000000000434e-04
-6.123872000000000039e-04
-6.565712999999999931e-04
-6.805014999999999762e-04
-6.885978000000000498e-04
1.107586399999999950e-03
1.189570800000000093e-03
1.273646499999999977e-03
1.357322599999999987e-03
1.437024999999999978e-03
1.507990100000000102e-03
1.564343499999999894e-03
1.599454300000000039e-03
1.606574300000000038e-03
1.579613500000000064e-03
1.513775300000000075e-03
1.405898800000000099e-03
1.254826400000000038e-03
1.062431800000000022e-03
8.353078999999999582e-04
5.857571000000000435e-04
3.304512000000000118e-04
8.684160000000000555e-05
-1.307404000000000129e-04
-3.133820999999999959e-04
-4.578036999999999753e-04
-5.651734000000000055e-04
-6.394588999999999569e-04
-6.859420000000000404e-04
-7.101511000000000455e-04
-7.172193000000000535e-04
-7.115754000000000176e-04
1.075961500000000015e-03
1.162337600000000037e-03
1.253801900000000007e-03
1.348862300000000037e-03
1.445045199999999905e-03
1.538633200000000039e-03
1.624479600000000058e-03
1.696020300000000008e-03
1.745615000000000057e-03
1.765270200000000058e-03
1.747591499999999898e-03
1.686593400000000039e-03
1.578077499999999949e-03
1.419937600000000010e-03
1.213369200000000018e-03
9.651939999999999478e-04
6.894540000000000434e-04
4.058625000000000058e-04
1.351783000000000064e-04
-1.057581999999999999e-04
-3.067796000000000130e-04
-4.644676000000000251e-04
-5.805676999999999539e-04
-6.599447000000000039e-04
-7.088211999999999551e-04
-7.335570999999999498e-04
-7.399496999999999672e-04
-7.329205000000000312e-04
1.115555999999999970e-03
1.209000499999999959e-03
1.308835200000000015e-03
1.413709200000000041e-03
1.521220200000000062e-03
1.627586699999999898e-03
1.727375400000000097e-03
1.813422999999999988e-03
1.877125299999999990e-03
1.909206699999999902e-03
1.900860699999999898e-03
1.844823800000000048e-03
1.735922200000000054e-03
1.571368999999999978e-03
1.352041100000000041e-03
1.085215899999999924e-03
7.865818000000000115e-04
4.784607999999999982e-04
1.843358999999999981e-04
-7.691639999999999426e-05
-2.940983999999999894e-04
-4.636527000000000205e-04
-5.877734000000000127e-04
-6.720549999999999614e-04
-7.235022999999999932e-04
-7.491769000000000336e-04
-7.554413999999999530e-04
-7.476390000000000292e-04
1.146622300000000021e-03
1.245710699999999938e-03
1.352283699999999936e-03
1.465137899999999910e-03
1.581975200000000073e-03
1.699019099999999997e-03
1.810659299999999939e-03
1.909272299999999938e-03
1.985421399999999937e-03
2.028621200000000051e-03
2.028640400000000094e-03
1.976916400000000140e-03
1.867447499999999897e-03
1.697213599999999921e-03
1.467384699999999985e-03
1.186042800000000055e-03
8.702075999999999995e-04
5.438716000000000123e-04
2.321687999999999920e-04
-4.471140000000000021e-05
-2.747742999999999757e-04
-4.542061000000000015e-04
-5.853809000000000182e-04
-6.743346999999999796e-04
-7.286073999999999589e-04
-7.557717999999999728e-04
-7.626179999999999548e-04
-7.548166999999999724e-04
1.167980899999999976e-03
1.270942800000000004e-03
1.382168999999999932e-03
1.500580299999999942e-03
1.623984200000000043e-03
1.748650899999999904e-03
1.868893599999999931e-03
1.976795400000000077e-03
2.062307499999999939e-03
2.113967599999999787e-03
2.120320699999999996e-03
2.071691799999999910e-03
1.961551199999999814e-03
1.787166900000000062e-03
1.550577800000000088e-03
1.260808200000000049e-03
9.355261999999999606e-04
5.991060999999999999e-04
2.770887999999999888e-04
-9.741199999999999162e-06
-2.487449999999999774e-04
-4.356556999999999834e-04
-5.726944000000000305e-04
-6.659985999999999901e-04
-7.233515999999999948e-04
-7.526107000000000413e-04
-7.608289000000000501e-04
-7.538923999999999582e-04
1.178830500000000022e-03
1.283652699999999949e-03
1.397121799999999922e-03
1.518232900000000092e-03
1.644865900000000002e-03
1.773342900000000107e-03
1.897969399999999921e-03
2.010699400000000043e-03
2.101154599999999813e-03
2.157293299999999900e-03
2.166912100000000039e-03
2.119725499999999992e-03
2.009181400000000211e-03
1.833318600000000001e-03
1.595305700000000009e-03
1.304783500000000068e-03
9.790359999999999688e-04
6.414797999999999768e-04
3.169860999999999838e-04
2.638110000000000056e-05
-2.171545000000000094e-04
-4.087283000000000149e-04
-5.501090000000000146e-04
-6.472064999999999502e-04
-7.077452999999999609e-04
-7.396199000000000436e-04
-7.499610999999999777e-04
-7.447414999999999981e-04
-7.287141999999999491e-04
1.178818199999999948e-03
1.283378099999999983e-03
1.396529899999999959e-03
1.517274699999999902e-03
1.643508599999999892e-03
1.771579899999999996e-03
1.895824499999999900e-03
2.008213899999999885e-03
2.098348700000000119e-03
2.154116699999999995e-03
2.163252699999999862e-03
2.115605600000000208e-03
2.005214400000000091e-03
1.831196900000000086e-03
1.597721199999999932e-03
1.314401900000000071e-03
9.971159999999999312e-04
6.672657999999999498e-04
3.482415999999999897e-04
6.041700000000000109e-05
-1.826921999999999921e-04
-3.755335999999999852e-04
-5.192177000000000077e-04
-6.191340000000000255e-04
-6.826468999999999506e-04
-7.174253000000000444e-04
-7.304730000000000381e-04
-7.277021999999999527e-04
-7.138481000000000340e-04
1.168068599999999959e-03
1.270282699999999987e-03
1.380604600000000107e-03
1.497973199999999951e-03
1.620241300000000014e-03
1.743752699999999911e-03
1.862904500000000033e-03
1.969826899999999915e-03
2.054414400000000203e-03
2.105019100000000108e-03
2.110038800000000117e-03
2.060198999999999971e-03
1.950609399999999986e-03
1.781486000000000094e-03
1.557614400000000053e-03
1.288039900000000028e-03
9.866956999999999117e-04
6.724206999999999840e-04
3.664987999999999883e-04
8.822500000000000318e-05
-1.489973999999999975e-04
-3.391191000000000105e-04
-4.824989000000000231e-04
-5.837626999999999530e-04
-6.496253000000000227e-04
-6.872624999999999611e-04
-7.033357000000000497e-04
-7.035382999999999654e-04
-6.924782999999999460e-04
1.147167599999999923e-03
1.245134200000000023e-03
1.350353500000000054e-03
1.461650500000000056e-03
1.576796199999999952e-03
1.692122400000000033e-03
1.802140800000000091e-03
1.899297000000000095e-03
1.974083000000000174e-03
2.015783900000000031e-03
2.014032199999999870e-03
1.960921400000000155e-03
1.852801500000000011e-03
1.690747600000000028e-03
1.479759300000000081e-03
1.228122199999999963e-03
9.478906000000000484e-04
6.552850000000000254e-04
3.690225999999999793e-04
1.065987000000000065e-04
-1.193297000000000037e-04
-3.025470000000000156e-04
-4.426890999999999964e-04
-5.434552999999999736e-04
-6.106713000000000158e-04
-6.507800000000000000e-04
-6.698977999999999747e-04
-6.733439999999999825e-04
1.117103599999999921e-03
1.209221199999999975e-03
1.307460999999999996e-03
1.410511699999999948e-03
1.516058800000000088e-03
1.620453599999999985e-03
1.718410399999999996e-03
1.802858399999999984e-03
1.865146899999999908e-03
1.895820899999999974e-03
1.886057399999999931e-03
1.829475600000000099e-03
1.723559499999999895e-03
1.569918299999999893e-03
1.373490800000000053e-03
1.141872300000000041e-03
8.855965999999999838e-04
6.184953999999999669e-04
3.565053000000000102e-04
1.147607999999999940e-04
-9.541770000000000633e-05
-2.680380000000000111e-04
-4.021548999999999805e-04
-5.004980999999999710e-04
-5.678645000000000177e-04
-6.097966000000000020e-04
-6.317084999999999844e-04
-6.384156999999999462e-04
1.164221200000000074e-03
1.254099199999999907e-03
1.347370799999999917e-03
1.441667999999999899e-03
1.533426700000000082e-03
1.617672300000000006e-03
1.687970299999999894e-03
1.736704200000000007e-03
1.755831800000000071e-03
1.738133300000000098e-03
1.678663900000000033e-03
1.575817399999999893e-03
1.431474500000000025e-03
1.250369400000000009e-03
1.039507299999999947e-03
8.082099000000000357e-04
5.682174000000000122e-04
3.327542000000000065e-04
1.143938000000000024e-04
-7.722039999999999677e-05
-2.366408999999999928e-04
-3.625487999999999736e-04
-4.567853000000000191e-04
-5.231049999999999459e-04
-5.660832999999999881e-04
-5.903456000000000285e-04
-6.001183999999999902e-04
1.112042900000000025e-03
1.192705299999999953e-03
1.275334799999999985e-03
1.357566099999999972e-03
1.436001099999999935e-03
1.506078199999999956e-03
1.562105299999999933e-03
1.597576299999999960e-03
1.605860599999999958e-03
1.581230899999999965e-03
1.519977399999999966e-03
1.421184600000000020e-03
1.286839599999999896e-03
1.121388399999999992e-03
9.312597999999999840e-04
7.247043000000000538e-04
5.116339999999999603e-04
3.028381000000000237e-04
1.084751999999999944e-04
-6.353169999999999347e-05
-2.084555000000000034e-04
-3.248098999999999952e-04
-4.137109999999999833e-04
-4.779652000000000228e-04
-5.212125000000000178e-04
-5.472794999999999700e-04
-5.597710999999999573e-04
1.054666099999999928e-03
1.125762300000000089e-03
1.197503699999999957e-03
1.267593600000000006e-03
1.332875600000000063e-03
1.389275199999999997e-03
1.431888700000000106e-03
1.455304199999999997e-03
1.454196000000000048e-03
1.424137299999999901e-03
1.362432100000000043e-03
1.268679499999999941e-03
1.144872199999999972e-03
9.951009999999999717e-04
8.251626999999999660e-04
6.422720000000000469e-04
4.547320999999999894e-04
2.712637999999999963e-04
9.995439999999999967e-05
-5.282539999999999740e-05
-1.831002999999999993e-04
-2.893727999999999817e-04
-3.722199000000000037e-04
-4.336551000000000012e-04
-4.764845999999999882e-04
-5.037878999999999882e-04
1.055613300000000053e-03
1.116731300000000033e-03
1.175186499999999893e-03
1.228121700000000009e-03
1.271984999999999999e-03
1.302650800000000088e-03
1.315719300000000019e-03
1.307007300000000106e-03
1.273173700000000078e-03
1.212329999999999961e-03
1.124451899999999926e-03
1.011466799999999984e-03
8.770553999999999850e-04
7.263249999999999958e-04
5.654715999999999953e-04
4.013864000000000234e-04
2.410881000000000135e-04
9.098519999999999752e-05
-4.384430000000000304e-05
-1.601127999999999894e-04
-2.564039000000000270e-04
-3.329216000000000076e-04
-3.910556000000000036e-04
-4.329134000000000215e-04
-4.609169999999999782e-04
1.035467200000000053e-03
1.083198600000000048e-03
1.124997599999999964e-03
1.157834699999999968e-03
1.178309599999999985e-03
1.182914699999999993e-03
1.168428800000000057e-03
1.132387899999999980e-03
1.073530399999999977e-03
9.920943999999999249e-04
8.898892000000000043e-04
7.701547000000000210e-04
6.372892000000000444e-04
4.965180999999999718e-04
3.535084000000000186e-04
2.139002000000000091e-04
8.277909999999999489e-05
-3.580620000000000287e-05
-1.391514000000000108e-04
-2.259619999999999890e-04
-2.961969000000000169e-04
-3.507760999999999974e-04
-3.912464000000000154e-04
9.938351000000000216e-04
1.025911200000000079e-03
1.049373199999999997e-03
1.061467499999999920e-03
1.059444799999999937e-03
1.040868599999999903e-03
1.003964999999999892e-03
9.479442000000000033e-04
8.732126000000000427e-04
7.814255999999999676e-04
6.753806000000000436e-04
5.587931999999999882e-04
4.360033999999999937e-04
3.116352000000000076e-04
1.902196000000000041e-04
7.580959999999999327e-05
-2.834980000000000087e-05
-1.200300000000000011e-04
-1.980684000000000025e-04
-2.622699000000000146e-04
-3.132101999999999781e-04
9.324853999999999608e-04
9.482012000000000383e-04
9.536225999999999861e-04
9.466262999999999934e-04
9.253996000000000227e-04
8.886980000000000487e-04
8.360753000000000282e-04
7.680319999999999812e-04
6.860501000000000403e-04
5.925076000000000257e-04
4.904981000000000532e-04
3.835851999999999947e-04
2.755200000000000184e-04
1.699435999999999970e-04
7.010269999999999544e-05
-2.138390000000000036e-05
-1.026700999999999981e-04
-1.727203999999999870e-04
-2.312476000000000050e-04
8.554192000000000176e-04
8.448588000000000365e-04
8.221447999999999690e-04
7.864296999999999694e-04
7.375081999999999601e-04
6.759198999999999589e-04
6.029683999999999782e-04
5.206524999999999825e-04
4.315216999999999989e-04
3.384794999999999904e-04
2.445575999999999978e-04
1.526848999999999990e-04
6.547440000000000454e-05
-1.494580000000000012e-05
-8.703749999999999465e-05
-1.498822999999999931e-04
7.306097999999999586e-04
6.964166999999999623e-04
6.512930000000000542e-04
5.957790999999999825e-04
5.310068999999999727e-04
4.586429000000000265e-04
3.807750000000000262e-04
2.997580999999999922e-04
2.180383000000000093e-04
1.379750000000000063e-04
6.168040000000000664e-05
-9.106199999999999313e-06
4.688622000000000254e-04
4.052386000000000269e-04
3.371510999999999779e-04
2.665060000000000128e-04
1.952765999999999931e-04
2.783945999999999925e-04
2.152884000000000037e-04
1.480467000000000068e-04
7.850760000000000030e-05
8.650700000000000032e-06
4.993134999999999891e-04
4.529630000000000201e-04
3.970773000000000141e-04
3.325165999999999734e-04
2.606924999999999846e-04
1.835104999999999907e-04
1.032539000000000042e-04
2.241660000000000150e-05
-5.649669999999999730e-05
-1.311739000000000080e-04
-1.996718000000000082e-04
6.461105999999999664e-04
6.199719999999999927e-04
5.822514000000000205e-04
5.325227999999999559e-04
4.709795000000000127e-04
3.985211000000000222e-04
3.167752000000000024e-04
2.280418000000000093e-04
1.351543999999999879e-04
4.126330000000000183e-05
-5.043520000000000121e-05
-1.369847999999999899e-04
-2.159215000000000028e-04
-2.854458999999999838e-04
-3.444939000000000052e-04
7.550642000000000204e-04
7.540246000000000448e-04
7.422458999999999741e-04
7.180110999999999872e-04
6.799640000000000241e-04
6.273217000000000420e-04
5.600635999999999549e-04
4.790667999999999988e-04
3.861617000000000131e-04
2.840903000000000200e-04
1.763524000000000092e-04
6.693389999999999963e-05
-4.006060000000000063e-05
-1.408159999999999881e-04
-2.321742999999999973e-04
-3.118845000000000189e-04
-3.786961000000000147e-04
-4.323007999999999929e-04
-4.731666000000000040e-04
8.373589999999999766e-04
8.527890999999999900e-04
8.585726999999999595e-04
8.522777000000000477e-04
8.315813999999999932e-04
7.945355000000000299e-04
7.398508999999999945e-04
6.671585000000000059e-04
5.772070999999999712e-04
4.719734000000000169e-04
3.546590999999999871e-04
2.295463999999999881e-04
1.016756999999999996e-04
-2.364920000000000051e-05
-1.414536000000000038e-04
-2.476423000000000057e-04
-3.393720000000000027e-04
-4.151738999999999994e-04
-4.748452999999999919e-04
-5.191860000000000398e-04
-5.496757999999999592e-04
9.033841999999999827e-04
9.358192000000000203e-04
9.608591000000000311e-04
9.756342000000000313e-04
9.770437999999999779e-04
9.620116000000000171e-04
9.278240000000000532e-04
8.725036000000000467e-04
7.951539000000000306e-04
6.962319999999999707e-04
5.777319000000000378e-04
4.432670000000000100e-04
2.979917000000000221e-04
1.482602000000000073e-04
9.670000000000000166e-07
-1.373289999999999992e-04
-2.612528000000000137e-04
-3.671783999999999877e-04
-4.533896999999999732e-04
-5.198792999999999947e-04
-5.679304999999999727e-04
-5.996388000000000499e-04
-6.174836999999999644e-04
9.495916000000000513e-04
9.978657999999999625e-04
1.041872799999999950e-03
1.078724400000000009e-03
1.104957599999999932e-03
1.116695600000000002e-03
1.109952800000000043e-03
1.081061300000000017e-03
1.027149900000000077e-03
9.465797000000000403e-04
8.392850000000000527e-04
7.070423999999999850e-04
5.537076999999999841e-04
3.853242999999999794e-04
2.098505999999999928e-04
3.629929999999999989e-05
-1.265878000000000012e-04
-2.716778999999999895e-04
-3.943174999999999935e-04
-4.925285999999999857e-04
-5.666411000000000321e-04
-6.186298999999999704e-04
-6.514134000000000200e-04
-6.682695999999999689e-04
9.745122000000000376e-04
1.035949399999999904e-03
1.096622900000000095e-03
1.154064800000000057e-03
1.204996399999999981e-03
1.245327500000000020e-03
1.270311600000000084e-03
1.274900800000000091e-03
1.254281299999999988e-03
1.204479600000000041e-03
1.122887099999999964e-03
1.008628400000000048e-03
8.628950000000000248e-04
6.894251999999999802e-04
4.950236000000000219e-04
2.895549000000000083e-04
8.485169999999999941e-05
-1.073331000000000041e-04
-2.774701999999999984e-04
-4.195882999999999753e-04
-5.314745000000000493e-04
-6.140098999999999774e-04
-6.701333000000000506e-04
-7.038327999999999945e-04
-7.193714000000000358e-04
-7.207884000000000123e-04
1.049753100000000092e-03
1.123242599999999978e-03
1.197553999999999980e-03
1.270093099999999951e-03
1.337235499999999940e-03
1.394261200000000006e-03
1.435483399999999904e-03
1.454651900000000038e-03
1.445623100000000081e-03
1.403132700000000099e-03
1.323403500000000076e-03
1.204456299999999902e-03
1.046405899999999908e-03
8.522723000000000495e-04
6.292716999999999538e-04
3.894551999999999910e-04
1.483750999999999950e-04
-7.812390000000000599e-05
-2.773337999999999975e-04
-4.416746999999999947e-04
-5.688044000000000390e-04
-6.604532999999999671e-04
-7.208473999999999654e-04
-7.553085999999999871e-04
-7.692652999999999817e-04
-7.676755999999999858e-04
1.041363299999999896e-03
1.123053799999999998e-03
1.209096599999999987e-03
1.297867799999999914e-03
1.386737199999999934e-03
1.471812199999999928e-03
1.547778199999999939e-03
1.607971199999999991e-03
1.644817000000000024e-03
1.650664200000000106e-03
1.618789200000000103e-03
1.544112199999999897e-03
1.423331199999999970e-03
1.254969000000000093e-03
1.040528900000000073e-03
7.870503999999999955e-04
5.089944999999999799e-04
2.266818999999999887e-04
-3.870700000000000057e-05
-2.704823999999999770e-04
-4.592611000000000132e-04
-6.027841000000000145e-04
-7.039843000000000489e-04
-7.686985000000000129e-04
-8.038122999999999883e-04
-8.160573000000000176e-04
-8.113776000000000495e-04
-7.946914999999999925e-04
1.099856499999999921e-03
1.192128700000000003e-03
1.290703600000000020e-03
1.394148800000000058e-03
1.499901500000000052e-03
1.603906999999999902e-03
1.700336800000000047e-03
1.781558900000000016e-03
1.838578399999999920e-03
1.862046800000000070e-03
1.843587000000000047e-03
1.776719400000000091e-03
1.656751500000000097e-03
1.480284199999999965e-03
1.246573599999999940e-03
9.618297000000000044e-04
6.430751000000000392e-04
3.163783999999999997e-04
9.323399999999999537e-06
-2.568795000000000128e-04
-4.710618999999999766e-04
-6.313348000000000527e-04
-7.421399999999999655e-04
-8.111439000000000453e-04
-8.469172999999999762e-04
-8.575434000000000268e-04
-8.499577999999999821e-04
-8.297581000000000271e-04
1.152351600000000014e-03
1.254523499999999963e-03
1.364973499999999965e-03
1.482531999999999947e-03
1.604805099999999981e-03
1.727703699999999943e-03
1.845012800000000097e-03
1.948209800000000064e-03
2.026834500000000098e-03
2.069635399999999927e-03
2.066286599999999848e-03
2.008719799999999795e-03
1.890900399999999966e-03
1.707610000000000031e-03
1.455715499999999957e-03
1.140357199999999897e-03
7.812293999999999575e-04
4.105700000000000213e-04
6.261720000000000079e-05
-2.370140999999999980e-04
-4.756474000000000227e-04
-6.519746000000000308e-04
-7.720256999999999901e-04
-8.452811999999999869e-04
-8.819353000000000262e-04
-8.913495000000000012e-04
-8.813822999999999927e-04
-8.582540999999999521e-04
1.196942400000000021e-03
1.307787799999999981e-03
1.428757300000000003e-03
1.558985199999999996e-03
1.696327099999999895e-03
1.836788900000000096e-03
1.973939200000000144e-03
2.098531299999999936e-03
2.198705500000000188e-03
2.261151700000000112e-03
2.273196300000000000e-03
2.224770200000000114e-03
2.108493600000000117e-03
1.917939800000000071e-03
1.648524200000000021e-03
1.305051100000000032e-03
9.099604999999999760e-04
5.009004000000000061e-04
1.175470999999999981e-04
-2.110645999999999985e-04
-4.711394999999999841e-04
-6.618550000000000388e-04
-7.905237000000000288e-04
-8.681151999999999922e-04
-9.061807000000000499e-04
-9.151641000000000289e-04
-9.037125999999999710e-04
-8.785814000000000514e-04
1.125582699999999993e-03
1.231906700000000082e-03
1.349676699999999979e-03
1.479120599999999989e-03
1.619673199999999928e-03
1.769477200000000054e-03
1.924733899999999959e-03
2.078978100000000023e-03
2.222488800000000167e-03
2.342237799999999891e-03
2.422898199999999787e-03
2.449147500000000213e-03
2.408406699999999893e-03
2.291830700000000148e-03
2.092719099999999863e-03
1.806919699999999952e-03
1.440500400000000077e-03
1.018427199999999986e-03
5.815587000000000534e-04
1.723984999999999927e-04
-1.781060000000000054e-04
-4.552401000000000190e-04
-6.581573000000000284e-04
-7.947874999999999862e-04
-8.770231000000000294e-04
-9.173602000000000535e-04
-9.270479999999999780e-04
-9.153444999999999637e-04
-8.894321000000000388e-04
-8.546517999999999476e-04
1.145682299999999966e-03
1.255851699999999908e-03
1.378354000000000038e-03
1.513628900000000025e-03
1.661355999999999901e-03
1.819938199999999963e-03
1.985807599999999794e-03
2.152601699999999885e-03
2.310391900000000054e-03
2.445356599999999863e-03
2.540510000000000164e-03
2.578021199999999853e-03
2.542691399999999838e-03
2.424316299999999813e-03
2.216980099999999940e-03
1.918892200000000018e-03
1.538603300000000035e-03
1.102417899999999940e-03
6.512732999999999500e-04
2.276479999999999997e-04
-1.367902999999999903e-04
-4.262250999999999995e-04
-6.390471000000000432e-04
-7.830295000000000354e-04
-8.703609000000000172e-04
-9.140258000000000063e-04
-9.257662000000000269e-04
-9.152497000000000540e-04
-8.899644999999999865e-04
-8.554647999999999549e-04
1.155853899999999962e-03
1.267836399999999969e-03
1.392569599999999956e-03
1.530604700000000101e-03
1.681760899999999899e-03
1.844607100000000095e-03
2.015751599999999859e-03
2.188968400000000040e-03
2.354309900000000049e-03
2.497569500000000001e-03
2.600745499999999964e-03
2.644287700000000178e-03
2.611161800000000137e-03
2.490621199999999789e-03
2.278636200000000184e-03
1.976814199999999983e-03
1.595773200000000051e-03
1.160649199999999994e-03
7.093619999999999483e-04
2.824885999999999977e-04
-8.799060000000000421e-05
-3.847820000000000168e-04
-6.048998000000000526e-04
-7.553339000000000494e-04
-8.480096999999999592e-04
-8.959474999999999731e-04
-9.110468999999999729e-04
-9.031577000000000485e-04
-8.799320999999999705e-04
-8.470574999999999719e-04
1.155789200000000017e-03
1.267455600000000002e-03
1.391782199999999897e-03
1.529312400000000039e-03
1.679868599999999931e-03
1.842042300000000001e-03
2.012490300000000128e-03
2.185056600000000095e-03
2.349853700000000076e-03
2.492648799999999925e-03
2.595225699999999854e-03
2.637629700000000080e-03
2.602610899999999866e-03
2.480304400000000152e-03
2.269349600000000137e-03
1.974524899999999944e-03
1.606848500000000084e-03
1.187658600000000061e-03
7.497437000000000025e-04
3.308194000000000195e-04
-3.709239999999999743e-05
-3.352054999999999944e-04
-5.589147000000000039e-04
-7.139890999999999772e-04
-8.115743000000000132e-04
-8.642444000000000428e-04
-8.836742000000000511e-04
-8.796235000000000121e-04
-8.597331000000000374e-04
-8.297202000000000049e-04
1.145608900000000090e-03
1.254872699999999997e-03
1.376210799999999946e-03
1.510040600000000025e-03
1.656050700000000079e-03
1.812705599999999946e-03
1.976568599999999933e-03
2.141463200000000202e-03
2.297613100000000033e-03
2.431108500000000137e-03
2.524371799999999919e-03
2.558505899999999854e-03
2.517805000000000130e-03
2.394494999999999957e-03
2.189777999999999863e-03
1.910391900000000089e-03
1.566417700000000092e-03
1.174588100000000098e-03
7.620007000000000039e-04
3.626139000000000012e-04
7.353600000000000203e-06
-2.843109000000000022e-04
-5.063409999999999959e-04
-6.629776999999999459e-04
-7.640604999999999532e-04
-8.211849999999999922e-04
-8.453637000000000391e-04
-8.459502000000000037e-04
-8.303622999999999560e-04
-8.042163999999999867e-04
1.125846900000000098e-03
1.230797999999999962e-03
1.346804700000000079e-03
1.474063299999999951e-03
1.612022199999999916e-03
1.758911599999999926e-03
1.911114399999999918e-03
2.062414900000000134e-03
2.203278800000000193e-03
2.320524300000000126e-03
2.398009799999999830e-03
2.419054999999999817e-03
2.370616900000000176e-03
2.247326200000000079e-03
2.052005799999999814e-03
1.791991499999999893e-03
1.476283400000000029e-03
1.118225800000000091e-03
7.399413999999999558e-04
3.706453000000000070e-04
3.829139999999999730e-05
-2.384273000000000067e-04
-4.525989999999999809e-04
-6.068077999999999536e-04
-7.091420999999999879e-04
-7.697194000000000084e-04
-7.984608000000000243e-04
-8.039895999999999501e-04
-7.932768999999999671e-04
-7.716919000000000035e-04
1.196415400000000072e-03
1.305137700000000072e-03
1.423484399999999954e-03
1.550610299999999895e-03
1.684475300000000050e-03
1.821289299999999910e-03
1.954889300000000121e-03
2.076215800000000018e-03
2.173234799999999856e-03
2.231826399999999825e-03
2.238105000000000216e-03
2.181923200000000177e-03
2.059876500000000152e-03
1.875364999999999931e-03
1.635508900000000017e-03
1.348752099999999971e-03
1.026713700000000083e-03
6.876541000000000337e-04
3.555489000000000002e-04
5.387979999999999869e-05
-2.008308999999999951e-04
-4.015458999999999869e-04
-5.493426999999999946e-04
-6.503648000000000111e-04
-7.129334999999999666e-04
-7.455616999999999670e-04
-7.558791999999999508e-04
-7.502124000000000206e-04
-7.335440000000000363e-04
1.153269300000000054e-03
1.253242799999999954e-03
1.360993800000000068e-03
1.475387400000000016e-03
1.594150300000000010e-03
1.713410700000000085e-03
1.827228300000000071e-03
1.927280300000000068e-03
2.003001800000000186e-03
2.042560899999999995e-03
2.034893199999999926e-03
1.972405600000000196e-03
1.853038100000000028e-03
1.680157399999999968e-03
1.460404800000000055e-03
1.202019500000000088e-03
9.157842999999999930e-04
6.169714000000000404e-04
3.245985999999999858e-04
5.727029999999999952e-05
-1.713986000000000025e-04
-3.549048999999999975e-04
-4.932046000000000043e-04
-5.906169999999999866e-04
-6.536161000000000184e-04
-6.891758999999999689e-04
-7.037847999999999977e-04
-7.029898999999999827e-04
-6.912793999999999666e-04
1.103126500000000017e-03
1.193415300000000073e-03
1.289580800000000079e-03
1.390250700000000015e-03
1.493006000000000064e-03
1.594028799999999994e-03
1.687784600000000104e-03
1.766890300000000013e-03
1.822398000000000030e-03
1.844734800000000056e-03
1.825355899999999950e-03
1.758715899999999978e-03
1.643647700000000055e-03
1.483286699999999915e-03
1.283742600000000031e-03
1.052977999999999987e-03
8.010279999999999614e-04
5.407018999999999671e-04
2.868413000000000213e-04
5.368930000000000111e-05
-1.480572999999999893e-04
-3.128043000000000164e-04
-4.398334999999999962e-04
-5.319748000000000011e-04
-5.940338999999999776e-04
-6.315007000000000302e-04
-6.497026999999999620e-04
-6.533538000000000193e-04
1.128013200000000044e-03
1.212255200000000041e-03
1.299029799999999995e-03
1.385882200000000024e-03
1.469184500000000069e-03
1.543950799999999936e-03
1.603838700000000030e-03
1.641497999999999916e-03
1.649395799999999954e-03
1.621090499999999898e-03
1.552625900000000059e-03
1.443463600000000069e-03
1.296486699999999928e-03
1.117228199999999909e-03
9.130911999999999492e-04
6.931294000000000387e-04
4.680102999999999802e-04
2.492799999999999985e-04
4.771620000000000234e-05
-1.284733999999999887e-04
-2.746857999999999917e-04
-3.898867000000000088e-04
-4.758090999999999775e-04
-5.358904000000000488e-04
-5.743176999999999918e-04
-5.953396999999999812e-04
-6.028572000000000054e-04
1.059284599999999951e-03
1.131815300000000094e-03
1.205183299999999964e-03
1.277002499999999909e-03
1.343942600000000084e-03
1.401646500000000052e-03
1.444814999999999901e-03
1.467560099999999949e-03
1.464087100000000018e-03
1.429642600000000053e-03
1.361489900000000105e-03
1.259550899999999996e-03
1.126461800000000098e-03
9.671232000000000309e-04
7.881261000000000299e-04
5.973407999999999713e-04
4.035465000000000232e-04
2.157546999999999894e-04
4.215010000000000154e-05
-1.109938999999999945e-04
-2.399648000000000102e-04
-3.436339999999999967e-04
-4.229797999999999783e-04
-4.803898000000000131e-04
-5.189803999999999685e-04
-5.420641000000000131e-04
1.050688500000000096e-03
1.111609200000000016e-03
1.169766000000000035e-03
1.222193699999999912e-03
1.265183399999999939e-03
1.294408799999999986e-03
1.305250200000000055e-03
1.293334699999999955e-03
1.255228499999999896e-03
1.189115900000000010e-03
1.095246000000000023e-03
9.760009999999999953e-04
8.356204000000000539e-04
6.797611000000000061e-04
5.150521000000000352e-04
3.486327000000000002e-04
1.875693000000000000e-04
3.814580000000000330e-05
-9.480160000000000388e-05
-2.082846000000000014e-04
-3.011919999999999853e-04
-3.740026999999999826e-04
-4.283312000000000165e-04
-4.664531999999999880e-04
-4.909059000000000122e-04
1.020565499999999924e-03
1.066695000000000100e-03
1.106662200000000078e-03
1.137378899999999960e-03
1.155380500000000076e-03
1.157104200000000013e-03
1.139305499999999916e-03
1.099558100000000080e-03
1.036724500000000106e-03
9.512661000000000163e-04
8.453016000000000045e-04
7.224228999999999980e-04
5.873553000000000107e-04
4.455541999999999836e-04
3.027683000000000197e-04
1.645623000000000084e-04
3.582130000000000210e-05
-7.967450000000000432e-05
-1.794998999999999922e-04
-2.626085000000000116e-04
-3.291546000000000012e-04
-3.801968000000000188e-04
-4.173690999999999881e-04
9.694944000000000261e-04
9.990443000000000327e-04
1.019805500000000101e-03
1.029047200000000016e-03
1.024061099999999972e-03
1.002477000000000099e-03
9.626199999999999687e-04
9.038368999999999657e-04
8.267071000000000185e-04
7.330840999999999833e-04
6.259629999999999968e-04
5.092184000000000033e-04
3.872704000000000250e-04
2.647165000000000260e-04
1.459534999999999977e-04
3.482149999999999856e-05
-6.568239999999999983e-05
-1.535677000000000103e-04
-2.278685000000000020e-04
-2.885319000000000013e-04
-3.362214999999999995e-04
9.130841999999999474e-04
9.156811000000000377e-04
9.059645000000000501e-04
8.822275999999999556e-04
8.433448999999999763e-04
7.889960000000000332e-04
7.198080999999999837e-04
6.373795999999999715e-04
5.441801000000000450e-04
4.433503999999999895e-04
3.384381000000000216e-04
2.331051000000000054e-04
1.308360000000000057e-04
3.467609999999999822e-05
-5.296950000000000166e-05
-1.304495999999999987e-04
-1.968832000000000058e-04
-2.520881000000000098e-04
8.019782000000000256e-04
7.773043000000000313e-04
7.401070000000000478e-04
6.902863000000000184e-04
6.284688000000000297e-04
5.560176000000000007e-04
4.749552999999999891e-04
3.878112000000000182e-04
2.974191000000000269e-04
2.066915000000000115e-04
1.183982000000000009e-04
3.497110000000000133e-05
-4.164189999999999851e-05
-1.100604000000000008e-04
6.056717000000000307e-04
5.505634999999999609e-04
4.868971999999999840e-04
4.163233000000000125e-04
3.408735000000000085e-04
2.628080999999999885e-04
1.844449999999999866e-04
1.079927999999999937e-04
3.540440000000000275e-05
3.375070000000000197e-04
2.742474999999999861e-04
2.046976000000000101e-04
1.307023000000000039e-04
5.441719999999999798e-05
-2.185060000000000049e-05
-9.582390000000000254e-05
-1.654325000000000055e-04
5.563353000000000265e-04
5.163302000000000256e-04
4.651545000000000202e-04
4.031579999999999778e-04
3.313565999999999777e-04
2.514343000000000264e-04
1.656684000000000010e-04
7.677900000000000469e-05
-1.228420000000000006e-05
-9.859259999999999519e-05
-1.794893999999999895e-04
-2.528006999999999867e-04
-3.169722999999999942e-04
6.936597999999999549e-04
6.774981999999999706e-04
6.492466000000000122e-04
6.077603999999999689e-04
5.524816000000000536e-04
4.836120000000000176e-04
4.022262999999999880e-04
3.102973999999999880e-04
2.106199000000000059e-04
1.066258999999999984e-04
2.104499999999999925e-06
-9.914660000000000378e-05
-1.936813000000000120e-04
-2.787121000000000043e-04
-3.523072999999999938e-04
-4.134507999999999955e-04
-4.619757999999999959e-04
7.859943999999999568e-04
7.962232999999999767e-04
7.966451999999999735e-04
7.849679000000000031e-04
7.590506999999999593e-04
7.171703999999999666e-04
6.583032000000000163e-04
5.823770999999999505e-04
4.904488000000000467e-04
3.847716999999999739e-04
2.687330999999999834e-04
1.466472000000000077e-04
2.339600000000000097e-05
-9.605230000000000191e-05
-2.071711000000000060e-04
-3.063373999999999785e-04
-3.911232999999999962e-04
-4.603707999999999867e-04
-5.140707999999999910e-04
-5.531136999999999556e-04
8.591112999999999614e-04
8.863820000000000119e-04
9.058232000000000046e-04
9.146156000000000121e-04
9.097468999999999955e-04
8.882789999999999566e-04
8.476999999999999509e-04
7.863119000000000228e-04
7.035855000000000147e-04
6.004212000000000308e-04
4.792824999999999907e-04
3.441826999999999734e-04
2.004901000000000068e-04
5.450139999999999965e-05
-8.722170000000000552e-05
-2.186451999999999916e-04
-3.349820999999999788e-04
-4.331409000000000257e-04
-5.118177000000000447e-04
-5.712763000000000042e-04
-6.129472000000000392e-04
-6.389790999999999483e-04
9.143200999999999672e-04
9.581684999999999725e-04
9.972017999999999160e-04
1.028487899999999894e-03
1.048530599999999979e-03
1.053443199999999896e-03
1.039275699999999900e-03
1.002475500000000021e-03
9.404103000000000245e-04
8.518466999999999836e-04
7.373043999999999605e-04
5.992744000000000369e-04
4.423183000000000236e-04
2.729855000000000107e-04
9.938020000000000100e-05
-6.973869999999999689e-05
-2.261859000000000124e-04
-3.635175999999999837e-04
-4.777439000000000186e-04
-5.674306000000000488e-04
-6.332996999999999498e-04
-6.775765000000000000e-04
-7.033162000000000138e-04
-7.138504999999999850e-04
9.491629000000000125e-04
1.007468000000000079e-03
1.064549799999999977e-03
1.117844700000000021e-03
1.163949999999999967e-03
1.198623700000000028e-03
1.216952799999999934e-03
1.213743300000000086e-03
1.184119400000000107e-03
1.124218900000000052e-03
1.031808499999999898e-03
9.067034000000000508e-04
7.510559000000000202e-04
5.696663000000000247e-04
3.702409000000000147e-04
1.631461000000000066e-04
-3.978379999999999677e-05
-2.272251999999999942e-04
-3.903356999999999769e-04
-5.239102000000000038e-04
-6.264521000000000325e-04
-6.994370000000000188e-04
-7.462492000000000040e-04
-7.711782999999999616e-04
-7.786644000000000117e-04
-7.728277000000000410e-04
1.032704699999999979e-03
1.104447900000000028e-03
1.176733500000000073e-03
1.246835200000000025e-03
1.310920699999999946e-03
1.363969899999999905e-03
1.399909900000000052e-03
1.412068800000000103e-03
1.393954599999999971e-03
1.340182099999999909e-03
1.247227899999999931e-03
1.113807700000000100e-03
9.411115999999999969e-04
7.334451999999999552e-04
4.993035000000000485e-04
2.517948000000000104e-04
7.124399999999999924e-06
-2.187280000000000105e-04
-4.134375000000000138e-04
-5.701996999999999882e-04
-6.876391000000000144e-04
-7.684458999999999604e-04
-8.176610000000000171e-04
-8.412136000000000396e-04
-8.449313999999999653e-04
-8.339948999999999930e-04
1.034883799999999953e-03
1.116769899999999968e-03
1.203151200000000028e-03
1.292354799999999955e-03
1.381613000000000068e-03
1.466756800000000105e-03
1.542007400000000106e-03
1.600035500000000039e-03
1.632469199999999959e-03
1.630911700000000101e-03
1.588208499999999978e-03
1.499364100000000026e-03
1.361644599999999950e-03
1.174386500000000090e-03
9.400132000000000279e-04
6.668009000000000349e-04
3.710343000000000061e-04
7.519359999999999781e-05
-1.978291000000000131e-04
-4.307576000000000243e-04
-6.148278999999999550e-04
-7.491856999999999987e-04
-8.384086000000000012e-04
-8.898178000000000511e-04
-9.114353000000000385e-04
-9.107524999999999779e-04
-8.941536999999999836e-04
-8.667615000000000259e-04
1.104287100000000054e-03
1.199066099999999968e-03
1.300818999999999934e-03
1.408145699999999991e-03
1.518393399999999963e-03
1.627203000000000026e-03
1.728122599999999892e-03
1.812524299999999922e-03
1.870131699999999942e-03
1.890343899999999931e-03
1.864033200000000034e-03
1.784750600000000083e-03
1.648233899999999906e-03
1.450994499999999892e-03
1.191433599999999976e-03
8.756801999999999512e-04
5.234935999999999713e-04
1.662865000000000079e-04
-1.630926000000000045e-04
-4.407346000000000137e-04
-6.557911000000000035e-04
-8.086370999999999967e-04
-9.065899000000000527e-04
-9.599167000000000246e-04
-9.791470999999999075e-04
-9.736518000000000212e-04
-9.511057999999999969e-04
-9.174552999999999571e-04
1.071654299999999895e-03
1.169391699999999899e-03
1.276921999999999996e-03
1.394120800000000051e-03
1.519995099999999931e-03
1.652181099999999996e-03
1.786323299999999920e-03
1.915458299999999977e-03
2.029697400000000148e-03
2.116683600000000050e-03
2.163243899999999897e-03
2.157973799999999935e-03
2.093094000000000204e-03
1.963201899999999795e-03
1.761445699999999960e-03
1.479785900000000045e-03
1.119519399999999946e-03
7.040195000000000177e-04
2.767932999999999982e-04
-1.161017999999999935e-04
-4.428400000000000088e-04
-6.908717000000000417e-04
-8.627405999999999573e-04
-9.693101999999999881e-04
-1.024288699999999957e-03
-1.040951000000000029e-03
-1.030625799999999913e-03
-1.002276299999999964e-03
-9.626376000000000073e-04
-9.165781999999999922e-04
1.120480099999999904e-03
1.227941400000000108e-03
1.347440299999999981e-03
1.479340900000000085e-03
1.623164600000000062e-03
1.777001000000000058e-03
1.936720500000000018e-03
2.095092499999999958e-03
2.241132900000000153e-03
2.360319999999999953e-03
2.436442799999999874e-03
2.455139399999999982e-03
2.407027600000000156e-03
2.286161599999999867e-03
2.082869599999999984e-03
8.952009999999999829e-04
3.953884000000000174e-04
-6.197330000000000514e-05
-4.373010999999999999e-04
-7.172478000000000143e-04
-9.072177000000000062e-04
-1.021907100000000101e-03
-1.078490799999999930e-03
-1.092902100000000013e-03
-1.078315000000000046e-03
-1.044877100000000079e-03
-1.000031100000000001e-03
-9.490336000000000475e-04
1.161805300000000015e-03
1.277714799999999946e-03
1.407713099999999924e-03
1.552665300000000050e-03
1.712659899999999930e-03
1.886359599999999984e-03
2.070077000000000028e-03
2.256631600000000033e-03
2.434293900000000007e-03
2.586539899999999986e-03
2.693728700000000073e-03
2.737382699999999815e-03
2.705157100000000168e-03
2.590377599999999815e-03
5.062566999999999805e-04
-6.496199999999999738e-06
-4.232757999999999768e-04
-7.306959999999999714e-04
-9.366557000000000181e-04
-1.058976600000000089e-03
-1.117669699999999976e-03
-1.130878000000000091e-03
-1.113327699999999915e-03
-1.076171099999999933e-03
-1.027452799999999935e-03
-9.727597999999999627e-04
1.194108699999999954e-03
1.316705600000000033e-03
1.455075300000000004e-03
1.610534600000000042e-03
1.783714700000000068e-03
1.973888100000000066e-03
2.177960899999999925e-03
2.389131000000000067e-03
2.595443700000000034e-03
2.778925700000000037e-03
2.916594399999999920e-03
2.984764699999999799e-03
2.965828499999999951e-03
6.003303999999999672e-04
5.001790000000000099e-05
-3.964714999999999732e-04
-7.252946000000000133e-04
-9.450805000000000056e-04
-1.075164700000000003e-03
-1.137301700000000089e-03
-1.151181999999999943e-03
-1.132704900000000093e-03
-1.093819900000000088e-03
-1.043068399999999996e-03
-9.863236000000000919e-04
1.216174999999999895e-03
1.343297200000000092e-03
1.487356499999999962e-03
1.650007499999999946e-03
1.832311799999999935e-03
2.034071900000000016e-03
2.252798900000000173e-03
2.482270099999999997e-03
2.710803800000000183e-03
2.919786800000000009e-03
3.083695699999999817e-03
3.173604899999999882e-03
6.841160999999999466e-04
1.151147999999999977e-04
-3.500639999999999741e-04
-6.953328999999999847e-04
-9.277896999999999577e-04
-1.066616100000000083e-03
-1.134251100000000000e-03
-1.151293700000000086e-03
-1.134444899999999951e-03
-1.096249000000000095e-03
-1.045648200000000002e-03
-9.887687999999999512e-04
1.227193799999999960e-03
1.356407800000000068e-03
1.503093199999999902e-03
1.669076700000000045e-03
1.855657099999999957e-03
2.062960200000000036e-03
2.288923799999999838e-03
2.527833499999999900e-03
2.768457800000000048e-03
2.992151699999999991e-03
3.172002100000000189e-03
1.943686000000000079e-04
-2.816202000000000180e-04
-6.397227000000000339e-04
-8.840531000000000214e-04
-1.032626299999999915e-03
-1.107803199999999938e-03
-1.130531200000000009e-03
-1.117937899999999927e-03
-1.082939399999999913e-03
-1.034765399999999910e-03
-9.797519999999999667e-04
-9.221035000000000256e-04
1.226824799999999896e-03
1.355584900000000046e-03
1.501671700000000017e-03
1.666889300000000060e-03
1.852529500000000065e-03
2.058745399999999982e-03
2.283562199999999900e-03
2.521432000000000100e-03
2.761341100000000090e-03
2.984757800000000048e-03
3.164416199999999825e-03
3.266361000000000177e-03
2.769851000000000257e-04
-2.004692999999999883e-04
-5.654905999999999692e-04
-8.187633000000000150e-04
-9.764717000000000448e-04
-1.060122699999999953e-03
-1.090328599999999988e-03
-1.084146000000000025e-03
-1.054548700000000009e-03
-1.010878499999999947e-03
-9.595998999999999805e-04
-9.050415000000000456e-04
1.215220799999999985e-03
1.341039899999999906e-03
1.483381599999999967e-03
1.643836700000000104e-03
1.823444499999999973e-03
2.022078200000000138e-03
2.237478800000000049e-03
2.463855799999999877e-03
2.690072700000000188e-03
2.897743700000000172e-03
3.060307500000000128e-03
3.145499300000000054e-03
3.379141000000000111e-04
-1.252220000000000015e-04
-4.857902000000000097e-04
-7.410995000000000082e-04
-9.045875000000000530e-04
-9.957690000000000811e-04
-1.033954099999999940e-03
-1.035438700000000092e-03
-1.012812899999999960e-03
-9.752730000000000253e-04
-9.292740000000000071e-04
-8.792048999999999481e-04
1.193007100000000086e-03
1.313618600000000108e-03
1.449375799999999982e-03
1.601500399999999978e-03
1.770587300000000001e-03
1.956000299999999942e-03
2.154945599999999895e-03
2.361170399999999812e-03
2.563362899999999892e-03
2.743682700000000130e-03
2.877563000000000083e-03
2.936900799999999940e-03
2.898538899999999856e-03
2.755141799999999853e-03
2.517283400000000070e-03
8.476993000000000375e-04
3.582114000000000175e-04
-7.155730000000000012e-05
-4.130216000000000031e-04
-6.607054999999999916e-04
-8.244129000000000431e-04
-9.204473000000000125e-04
-9.657643999999999517e-04
-9.751342999999999990e-04
-9.602585999999999544e-04
-9.298750999999999631e-04
-8.902473000000000374e-04
1.161221600000000029e-03
1.274713999999999925e-03
1.401540599999999935e-03
1.542458200000000092e-03
1.697514599999999999e-03
1.865469700000000047e-03
2.042947299999999921e-03
2.223307800000000160e-03
2.395392899999999967e-03
2.542641899999999872e-03
2.643645899999999896e-03
2.675658100000000063e-03
2.621688000000000057e-03
2.477983600000000213e-03
2.254238400000000125e-03
1.963204999999999985e-03
1.611384800000000049e-03
1.205714400000000011e-03
7.686776000000000416e-04
3.392604999999999818e-04
-4.301300000000000305e-05
-3.531720000000000128e-04
-5.842287999999999518e-04
-7.422403000000000160e-04
-8.396436000000000394e-04
-8.903201999999999601e-04
-9.069183000000000409e-04
-8.998135999999999461e-04
-8.769891000000000362e-04
-8.443250999999999708e-04
1.226131899999999969e-03
1.342296599999999972e-03
1.469982400000000022e-03
1.608684399999999902e-03
1.756601599999999984e-03
1.909909300000000101e-03
2.061869899999999901e-03
2.201978299999999937e-03
2.315631199999999921e-03
2.385153799999999939e-03
2.393051800000000045e-03
2.327296100000000000e-03
2.185943200000000156e-03
1.976622700000000166e-03
1.710018700000000020e-03
1.394486300000000005e-03
1.039601200000000092e-03
6.642522000000000097e-04
2.971030000000000047e-04
-3.275359999999999757e-05
-3.056129000000000094e-04
-5.144114000000000195e-04
-6.622095000000000368e-04
-7.577499999999999600e-04
-8.116980999999999459e-04
-8.343263999999999542e-04
-8.344300000000000458e-04
-8.190250999999999521e-04
-7.934501000000000488e-04
1.169927299999999962e-03
1.274360200000000058e-03
1.387682799999999947e-03
1.508913599999999952e-03
1.635830100000000044e-03
1.764392700000000066e-03
1.888110900000000009e-03
1.997558600000000177e-03
2.080439999999999807e-03
2.122762199999999894e-03
2.111489900000000121e-03
2.038192500000000039e-03
1.901802300000000065e-03
1.708162600000000036e-03
1.466416400000000037e-03
1.186049800000000057e-03
8.781661000000000284e-04
5.588340999999999491e-04
2.488891999999999819e-04
-3.111629999999999886e-05
-2.665961999999999802e-04
-4.513529000000000065e-04
-5.865125999999999586e-04
-6.778462000000000289e-04
-7.331494999999999505e-04
-7.604092000000000446e-04
-7.667975000000000051e-04
-7.582704999999999697e-04
-7.395254000000000194e-04
1.108236299999999959e-03
1.200501400000000005e-03
1.299159100000000068e-03
1.402874900000000008e-03
1.509187799999999998e-03
1.614088399999999987e-03
1.711617699999999935e-03
1.793664799999999991e-03
1.850253799999999893e-03
1.870640499999999973e-03
1.845315500000000103e-03
1.768430699999999894e-03
1.639482500000000002e-03
1.463114599999999939e-03
1.247236899999999964e-03
1.001314099999999927e-03
7.363867000000000286e-04
4.659419000000000256e-04
2.053156000000000100e-04
-3.102069999999999931e-05
-2.325442999999999955e-04
-3.942246000000000270e-04
-5.161312000000000365e-04
-6.019070999999999753e-04
-6.570553999999999501e-04
-6.875879000000000105e-04
-6.991764999999999829e-04
-6.967339999999999601e-04
1.123334500000000092e-03
1.207713999999999923e-03
1.294713600000000058e-03
1.381811500000000104e-03
1.465230099999999909e-03
1.539716499999999955e-03
1.598525699999999968e-03
1.633792999999999921e-03
1.637456100000000058e-03
1.602701499999999949e-03
1.525563300000000065e-03
1.405993300000000015e-03
1.247842600000000080e-03
1.057883300000000016e-03
8.447202999999999700e-04
6.182917000000000014e-04
3.896840999999999847e-04
1.704034999999999957e-04
-2.916039999999999952e-05
-2.013836999999999875e-04
-3.423030999999999990e-04
-4.514766999999999934e-04
-5.311235000000000522e-04
-5.850397000000000019e-04
-6.176490999999999882e-04
-6.333368999999999501e-04
-6.360638000000000273e-04
1.116161399999999982e-03
1.187820000000000022e-03
1.257702299999999968e-03
1.322395799999999920e-03
1.377421800000000040e-03
1.417321600000000020e-03
1.436031699999999961e-03
1.427612300000000081e-03
1.387269700000000024e-03
1.312411199999999941e-03
1.203345399999999898e-03
1.063337599999999907e-03
8.980735999999999797e-04
7.149138000000000194e-04
5.222717999999999892e-04
3.290899999999999815e-04
1.441430000000000055e-04
-2.490469999999999891e-05
-1.724068000000000041e-04
-2.952357999999999762e-04
-3.927226000000000133e-04
-4.661601999999999825e-04
-5.181225000000000457e-04
-5.518141000000000062e-04
-5.705694999999999994e-04
1.026733099999999977e-03
1.084751899999999991e-03
1.139698200000000038e-03
1.188592000000000034e-03
1.227715299999999985e-03
1.252744899999999953e-03
1.259087199999999948e-03
1.242434099999999977e-03
1.199477100000000043e-03
1.128606500000000051e-03
1.030373999999999917e-03
9.075583000000000348e-04
7.648445999999999717e-04
6.082923999999999970e-04
4.447664000000000045e-04
2.813787999999999901e-04
1.248974999999999879e-04
-1.887869999999999934e-05
-1.456529000000000027e-04
-2.529143000000000190e-04
-3.399033999999999888e-04
-4.073138000000000236e-04
-4.568595999999999855e-04
-4.908332999999999750e-04
9.872708000000000005e-04
1.029591899999999930e-03
1.065500700000000063e-03
1.091975899999999894e-03
1.105651299999999915e-03
1.103095500000000071e-03
1.081226899999999892e-03
1.037808699999999895e-03
9.719139000000000120e-04
8.842300999999999894e-04
7.771087000000000090e-04
6.543566999999999483e-04
5.208501999999999620e-04
3.820704999999999870e-04
2.436244999999999915e-04
1.107708999999999934e-04
-1.201610000000000003e-05
-1.213854000000000051e-04
-2.152807999999999870e-04
-2.929197000000000137e-04
-3.546067999999999876e-04
-4.014547999999999836e-04
-4.350835999999999961e-04
9.283231999999999552e-04
9.537887000000000318e-04
9.704320000000000220e-04
9.756672000000000088e-04
9.669605999999999861e-04
9.421354000000000057e-04
8.997140999999999516e-04
8.392283000000000165e-04
7.614161999999999623e-04
6.682526999999999521e-04
5.628033999999999858e-04
4.489431000000000216e-04
3.309989000000000269e-04
2.133703999999999993e-04
1.001656000000000020e-04
-5.115100000000000374e-06
-9.980900000000000611e-05
-1.822058000000000098e-04
-2.515357999999999982e-04
-3.078530000000000220e-04
8.625605000000000164e-04
8.616846000000000271e-04
8.489263999999999838e-04
8.227672000000000327e-04
7.822585999999999646e-04
7.272281999999999705e-04
6.584070999999999934e-04
5.774426000000000472e-04
4.867922000000000113e-04
3.895174000000000054e-04
2.890173000000000221e-04
1.887400000000000124e-04
9.190869999999999639e-05
1.289000000000000068e-06
-8.097609999999999877e-05
-1.534494000000000016e-04
-2.153971999999999983e-04
7.469716000000000159e-04
7.205996000000000319e-04
6.825210999999999865e-04
6.327471999999999784e-04
5.719663999999999521e-04
5.015466999999999799e-04
4.234554000000000182e-04
3.401085999999999780e-04
2.541744999999999768e-04
1.683594000000000063e-04
8.520289999999999700e-05
6.905999999999999609e-06
-6.479190000000000556e-05
4.379095999999999857e-04
3.704353999999999872e-04
2.987608000000000212e-04
2.249850000000000016e-04
1.512384999999999988e-04
3.960804000000000169e-04
3.351035000000000146e-04
2.655970000000000119e-04
1.892205999999999955e-04
1.081351000000000008e-04
2.485379999999999911e-05
-5.795599999999999873e-05
-1.376930999999999912e-04
-2.120349000000000051e-04
-2.791070999999999895e-04
6.251953000000000414e-04
6.049843999999999535e-04
5.733872000000000317e-04
5.295109999999999791e-04
4.730345000000000058e-04
4.043564000000000034e-04
3.246804999999999960e-04
2.360154999999999903e-04
1.410748999999999933e-04
4.308290000000000047e-05
-5.449719999999999722e-05
-1.482746000000000118e-04
-2.352353000000000007e-04
-3.129884000000000203e-04
-3.799135000000000142e-04
-4.351959000000000188e-04
7.279302999999999989e-04
7.226558999999999804e-04
7.056020999999999778e-04
6.749085999999999844e-04
6.291591999999999714e-04
5.676426999999999515e-04
4.905798000000000493e-04
3.992676000000000124e-04
2.961064999999999813e-04
1.844913000000000000e-04
6.856540000000000594e-05
-4.714519999999999714e-05
-1.581742000000000076e-04
-2.605609999999999741e-04
-3.512154000000000187e-04
-4.281315000000000055e-04
-4.904223000000000089e-04
-5.382005000000000252e-04
-5.723571000000000431e-04
8.010565000000000307e-04
8.218487999999999705e-04
8.344924999999999999e-04
8.363382000000000151e-04
8.246058000000000120e-04
7.966496999999999901e-04
7.503028999999999818e-04
6.842528999999999756e-04
5.983795999999999993e-04
4.939861000000000035e-04
3.738753000000000150e-04
2.422493000000000118e-04
1.044203000000000004e-04
-3.366730000000000205e-05
-1.660630000000000125e-04
-2.874808000000000073e-04
-3.938613999999999895e-04
