2.446338000000000158e-04
2.231661999999999979e-04
1.983703999999999871e-04
1.707738999999999948e-04
1.410837000000000126e-04
2.832458000000000046e-04
2.658100000000000046e-04
2.445077000000000036e-04
2.196416000000000080e-04
1.917296999999999882e-04
1.614839000000000075e-04
1.297589000000000088e-04
3.152728000000000149e-04
3.024489000000000105e-04
2.855288999999999896e-04
2.645766000000000242e-04
2.398694000000000043e-04
2.119072999999999964e-04
1.813929999999999894e-04
1.491851999999999892e-04
3.397505999999999790e-04
3.316757999999999729e-04
3.195631999999999900e-04
3.032695000000000074e-04
2.828330000000000210e-04
2.585037000000000099e-04
2.307552000000000095e-04
2.002686999999999957e-04
1.678906000000000083e-04
1.345654999999999909e-04
3.528523999999999897e-04
3.455301000000000140e-04
3.341554000000000160e-04
3.185694000000000199e-04
2.987881000000000065e-04
2.750338999999999757e-04
2.477476000000000266e-04
2.175784000000000106e-04
1.853455999999999962e-04
1.519772999999999925e-04
3.631392000000000213e-04
3.565210999999999771e-04
3.458819999999999928e-04
3.310540999999999853e-04
3.120363000000000130e-04
2.890236000000000020e-04
2.624212000000000007e-04
2.328377000000000018e-04
2.010534000000000019e-04
1.679645000000000010e-04
3.704248000000000046e-04
3.644410000000000162e-04
3.545097999999999782e-04
3.404613999999999926e-04
3.222821999999999753e-04
3.001422999999999808e-04
2.744100999999999767e-04
2.456487000000000254e-04
2.145899000000000103e-04
1.820861000000000116e-04
3.746345999999999791e-04
3.692006000000000172e-04
3.599303999999999785e-04
3.466577000000000200e-04
3.293610000000000201e-04
3.081889999999999998e-04
2.834738999999999965e-04
2.557311999999999953e-04
2.256388000000000122e-04
1.939959000000000106e-04
3.708326000000000179e-04
3.621639000000000173e-04
3.496435000000000211e-04
3.332464999999999950e-04
3.131033000000000080e-04
2.895126000000000036e-04
2.629427000000000261e-04
2.340149000000000081e-04
3.613514000000000179e-04
3.495470000000000196e-04
3.340455999999999786e-04
3.149628999999999927e-04
2.925673000000000271e-04
2.672818000000000199e-04
1.954996000000000077e-04
1.715346000000000026e-04
1.444740000000000130e-04
1.149551000000000067e-04
8.379119999999999830e-05
2.587983999999999988e-04
2.423579999999999994e-04
2.218250000000000115e-04
1.973702000000000030e-04
1.694113000000000021e-04
1.386102999999999966e-04
1.058363000000000018e-04
7.209429999999999853e-05
2.964433000000000150e-04
2.848055999999999960e-04
2.688341000000000016e-04
2.484283000000000216e-04
2.237201999999999930e-04
1.951111999999999964e-04
1.632759000000000066e-04
1.291258000000000098e-04
9.373390000000000053e-05
5.823500000000000063e-05
3.273330000000000185e-04
3.208182000000000178e-04
3.100595999999999951e-04
2.947231000000000243e-04
2.746555999999999932e-04
2.499461000000000022e-04
2.209703999999999943e-04
1.884012000000000013e-04
1.531749999999999963e-04
1.164154000000000035e-04
7.932690000000000108e-05
4.307879999999999826e-05
3.491106000000000114e-04
3.436992999999999841e-04
3.339018000000000021e-04
3.193366000000000217e-04
2.998023999999999741e-04
2.753446999999999796e-04
2.463057999999999957e-04
2.133418000000000044e-04
1.773939999999999892e-04
1.396143000000000026e-04
1.012557999999999937e-04
6.355160000000000323e-05
3.691740999999999794e-04
3.688052000000000040e-04
3.644849000000000244e-04
3.556856999999999749e-04
3.419896999999999759e-04
3.231560999999999874e-04
2.991894000000000259e-04
2.703932000000000254e-04
2.373928999999999883e-04
2.011136000000000119e-04
1.627102000000000062e-04
1.234599999999999869e-04
8.463889999999999359e-05
4.740599999999999979e-05
3.852274000000000041e-04
3.859129000000000097e-04
3.826244000000000021e-04
3.748151000000000022e-04
3.620439000000000252e-04
3.440412000000000223e-04
3.207761000000000271e-04
2.925113000000000127e-04
2.598300999999999909e-04
2.236215000000000002e-04
1.850180000000000097e-04
1.452943999999999959e-04
1.057460999999999937e-04
6.757009999999999872e-05
3.177119999999999830e-05
3.934421999999999919e-04
3.984036000000000153e-04
4.000065000000000131e-04
3.976494999999999813e-04
3.907795000000000149e-04
3.789455999999999858e-04
3.618615000000000048e-04
3.394687999999999981e-04
3.119899000000000196e-04
2.799580999999999988e-04
2.442098000000000077e-04
2.058321000000000109e-04
1.660716999999999977e-04
1.262186000000000048e-04
8.748710000000000471e-05
5.091790000000000254e-05
4.027403000000000038e-04
4.084084999999999777e-04
4.107609999999999929e-04
4.092020999999999831e-04
4.031846999999999753e-04
3.922611999999999909e-04
3.761403000000000077e-04
3.547442000000000043e-04
3.282587000000000222e-04
2.971631999999999876e-04
2.622300000000000152e-04
2.244826999999999912e-04
1.851172000000000104e-04
1.453935999999999965e-04
1.065219999999999942e-04
6.956099999999999350e-05
4.088933999999999906e-04
4.150590999999999916e-04
4.179733000000000255e-04
4.170563999999999868e-04
4.117783999999999876e-04
4.017057999999999783e-04
3.865523999999999957e-04
3.662297999999999812e-04
3.408918999999999947e-04
3.109648000000000013e-04
2.771504999999999954e-04
2.403972000000000097e-04
2.018312999999999932e-04
1.626622000000000094e-04
1.240729999999999893e-04
8.712099999999999478e-05
4.118478000000000178e-04
4.182956999999999734e-04
4.215762000000000177e-04
4.211344999999999911e-04
4.164667999999999951e-04
4.071624000000000033e-04
3.929482000000000200e-04
3.737325999999999799e-04
3.496438000000000150e-04
3.210579000000000080e-04
2.886063999999999817e-04
2.531548000000000110e-04
2.157484000000000094e-04
1.775277999999999980e-04
1.396290000000000009e-04
1.030879000000000062e-04
4.181856999999999762e-04
4.216420000000000129e-04
4.215102999999999884e-04
4.173192999999999738e-04
4.086874999999999796e-04
3.953609999999999980e-04
3.772507999999999829e-04
3.544657000000000103e-04
3.273371999999999870e-04
2.964291999999999773e-04
2.625241999999999962e-04
2.265785999999999994e-04
1.896516000000000055e-04
1.528152000000000069e-04
1.170646999999999974e-04
4.149154999999999749e-04
4.183737000000000089e-04
4.183988000000000030e-04
4.145571999999999820e-04
4.065000999999999944e-04
3.939966000000000149e-04
3.769649999999999932e-04
3.555000000000000217e-04
3.298950000000000255e-04
3.006519999999999939e-04
2.684726999999999817e-04
2.342230000000000104e-04
1.988725999999999905e-04
1.634166999999999900e-04
4.120832000000000054e-04
4.121330000000000197e-04
4.085275999999999881e-04
4.009533999999999820e-04
3.892042999999999761e-04
3.732087000000000035e-04
3.530518999999999867e-04
3.289953999999999774e-04
3.014857999999999926e-04
2.711491000000000227e-04
2.387621000000000090e-04
2.052021999999999917e-04
4.031301999999999846e-04
3.996677999999999819e-04
3.924962999999999846e-04
3.814355000000000176e-04
3.664254000000000035e-04
3.475455000000000016e-04
3.250303999999999975e-04
2.992779999999999898e-04
2.708448000000000127e-04
2.404227000000000046e-04
3.711982999999999863e-04
3.571208999999999777e-04
3.184691000000000236e-04
1.574784000000000134e-04
1.317044999999999924e-04
1.030660999999999990e-04
7.227780000000000110e-05
2.276001000000000098e-04
2.087733999999999890e-04
1.858008999999999984e-04
1.589286000000000084e-04
1.286713000000000093e-04
9.580300000000000415e-05
6.130700000000000103e-05
2.628970000000000005e-05
-8.124800000000000544e-06
2.718829000000000189e-04
2.578368000000000044e-04
2.392011999999999893e-04
2.159079000000000000e-04
1.881610000000000032e-04
1.564751000000000022e-04
1.216740000000000009e-04
8.483720000000000150e-05
4.720250000000000080e-05
1.004070000000000028e-05
-2.546889999999999937e-05
3.104943000000000199e-04
3.019453000000000176e-04
2.887599000000000134e-04
2.705706000000000213e-04
2.472284000000000265e-04
2.188813000000000011e-04
1.860293000000000114e-04
1.495306000000000011e-04
1.105492000000000020e-04
7.044610000000000303e-05
3.063600000000000280e-05
-7.558599999999999934e-06
-4.302599999999999768e-05
3.418618000000000004e-04
3.389768999999999833e-04
3.317654999999999866e-04
3.196385000000000263e-04
3.021381999999999866e-04
2.790304000000000178e-04
2.503976000000000097e-04
2.167086999999999941e-04
1.788373999999999964e-04
1.380125000000000004e-04
9.570070000000000345e-05
5.344800000000000055e-05
1.271369999999999993e-05
-2.526619999999999875e-05
3.651916999999999750e-04
3.676568000000000067e-04
3.663537999999999821e-04
3.605745000000000152e-04
3.496546999999999915e-04
3.330543999999999736e-04
3.104571000000000197e-04
2.818750000000000075e-04
2.477317000000000256e-04
2.088942999999999898e-04
1.666284999999999988e-04
1.224798999999999994e-04
7.810260000000000672e-05
3.507739999999999724e-05
-5.241499999999999706e-06
-4.182550000000000129e-05
3.875600000000000095e-04
3.916408999999999928e-04
3.919007000000000068e-04
3.875799000000000193e-04
3.779548000000000087e-04
3.624176000000000112e-04
3.405802999999999890e-04
3.123854999999999926e-04
2.782017000000000235e-04
2.388652000000000115e-04
1.956465000000000114e-04
1.501333999999999948e-04
1.040557000000000005e-04
5.909180000000000232e-05
1.670139999999999903e-05
-2.198769999999999956e-05
-5.622660000000000136e-05
3.989522999999999919e-04
4.076058000000000133e-04
4.131844999999999875e-04
4.149188999999999959e-04
4.120139000000000093e-04
4.037043999999999832e-04
3.893352999999999788e-04
3.684631999999999860e-04
3.409697000000000162e-04
3.071616000000000103e-04
2.678234000000000148e-04
2.241950000000000041e-04
1.778651000000000125e-04
1.305992000000000014e-04
8.414190000000000157e-05
4.003920000000000113e-05
-4.884999999999999604e-07
-3.660560000000000067e-05
4.148668000000000104e-04
4.248176000000000101e-04
4.317160999999999915e-04
4.347741000000000019e-04
4.331774000000000041e-04
4.261401000000000164e-04
4.129814999999999897e-04
3.932237000000000210e-04
3.667004999999999766e-04
3.336564999999999995e-04
2.948072000000000257e-04
2.513292000000000195e-04
2.047700000000000063e-04
1.568875000000000120e-04
1.094564000000000046e-04
6.408349999999999724e-05
2.206949999999999936e-05
-1.566540000000000082e-05
4.277549999999999864e-04
4.387619999999999845e-04
4.467516999999999734e-04
4.509299000000000141e-04
4.504792999999999883e-04
4.446130000000000069e-04
4.326471000000000136e-04
4.140907999999999894e-04
3.887453999999999931e-04
3.567983999999999956e-04
3.188854000000000081e-04
2.760939000000000232e-04
2.298927999999999887e-04
1.819908999999999926e-04
1.341543999999999907e-04
8.802089999999999611e-05
4.495159999999999835e-05
5.943399999999999711e-06
-2.839529999999999900e-05
4.232977999999999979e-04
4.373234000000000149e-04
4.491089999999999991e-04
4.579232000000000137e-04
4.629785999999999993e-04
4.634700999999999860e-04
4.586276000000000133e-04
4.477838999999999734e-04
4.304544999999999899e-04
4.064245999999999983e-04
3.758327999999999908e-04
3.392318000000000069e-04
2.976036000000000046e-04
2.523105000000000096e-04
2.049766999999999919e-04
1.573219999999999957e-04
1.109816999999999949e-04
6.735209999999999505e-05
2.749060000000000070e-05
-7.921600000000000524e-06
4.289294000000000136e-04
4.433902000000000091e-04
4.556547000000000201e-04
4.650041000000000157e-04
4.706698999999999844e-04
4.718729999999999865e-04
4.678754999999999828e-04
4.580424999999999839e-04
4.419113000000000121e-04
4.192652999999999853e-04
3.902045999999999943e-04
3.552028999999999733e-04
3.151315000000000236e-04
2.712290000000000013e-04
2.250080999999999913e-04
1.781093999999999993e-04
1.321313000000000066e-04
8.847519999999999614e-05
4.823689999999999890e-05
1.215690000000000045e-05
4.458999000000000166e-04
4.583389000000000105e-04
4.679290999999999919e-04
4.739324000000000162e-04
4.756076999999999831e-04
4.722608999999999900e-04
4.633007999999999875e-04
4.482976999999999752e-04
4.270438999999999789e-04
3.996119999999999815e-04
3.664062000000000156e-04
3.281903000000000077e-04
2.860739999999999854e-04
2.414417000000000028e-04
1.958279999999999960e-04
1.507625999999999921e-04
1.076202000000000034e-04
6.750849999999999917e-05
3.120879999999999840e-05
4.449294000000000231e-04
4.572517000000000118e-04
4.668019000000000140e-04
4.728817999999999759e-04
4.747981999999999767e-04
4.719093000000000051e-04
4.636743000000000136e-04
4.497031999999999874e-04
4.298047999999999951e-04
4.040343999999999750e-04
3.727383000000000020e-04
3.365830999999999793e-04
2.965527000000000245e-04
2.538961000000000169e-04
2.100236000000000062e-04
1.663691000000000128e-04
1.242512999999999940e-04
8.476170000000000536e-05
4.406807000000000107e-04
4.526252000000000248e-04
4.618846999999999927e-04
4.678090000000000200e-04
4.697594999999999939e-04
4.671516999999999814e-04
4.594989999999999860e-04
4.464534999999999836e-04
4.278452999999999879e-04
4.037209000000000262e-04
3.743807000000000254e-04
3.404069000000000018e-04
3.026670000000000076e-04
2.622750999999999989e-04
2.205068999999999877e-04
1.786818000000000076e-04
1.380373000000000006e-04
9.962369999999999960e-05
4.448101999999999785e-04
4.535715000000000059e-04
4.591484999999999967e-04
4.609613999999999942e-04
4.584853000000000062e-04
4.512879000000000131e-04
4.390641000000000032e-04
4.216676000000000148e-04
3.991422000000000221e-04
3.717527999999999892e-04
3.400108000000000210e-04
3.046788000000000144e-04
2.667419000000000083e-04
2.273393000000000072e-04
1.876645999999999989e-04
1.488565999999999869e-04
4.423478999999999801e-04
4.474327999999999964e-04
4.489776000000000227e-04
4.465164999999999998e-04
4.396703999999999977e-04
4.281754999999999936e-04
4.119096999999999841e-04
3.909181000000000071e-04
3.654387999999999951e-04
3.359233000000000097e-04
3.030414999999999953e-04
2.676592000000000207e-04
2.307827000000000088e-04
1.934767999999999905e-04
1.567717999999999954e-04
4.332423000000000177e-04
4.344300000000000266e-04
4.319015000000000050e-04
4.253279000000000109e-04
4.144843999999999850e-04
3.992724000000000230e-04
3.797407999999999947e-04
3.561063000000000162e-04
3.287699000000000047e-04
2.983201999999999902e-04
2.655143999999999799e-04
2.312341999999999891e-04
1.964183000000000096e-04
4.179400999999999798e-04
4.152930000000000098e-04
4.089370999999999848e-04
3.986834000000000189e-04
3.844555000000000260e-04
3.663065000000000071e-04
3.444359000000000136e-04
3.192010000000000225e-04
2.911187000000000085e-04
2.608492000000000232e-04
1.645108000000000106e-04
1.398283000000000110e-04
1.116070000000000039e-04
8.043709999999999597e-05
4.714760000000000240e-05
1.274819999999999934e-05
2.335956000000000035e-04
2.170221999999999971e-04
1.959186999999999984e-04
1.703019999999999968e-04
1.404753999999999866e-04
1.070582000000000044e-04
7.097239999999999831e-05
3.337610000000000050e-05
-4.445100000000000013e-06
-4.120869999999999731e-05
2.782320000000000019e-04
2.670476999999999877e-04
2.510758999999999994e-04
2.299896000000000113e-04
2.037100000000000130e-04
1.724889000000000012e-04
1.369584000000000133e-04
9.812629999999999595e-05
5.730329999999999734e-05
1.597320000000000150e-05
-2.436930000000000061e-05
-6.237479999999999782e-05
-9.695900000000000460e-05
3.169701999999999828e-04
3.117732000000000120e-04
3.019632999999999757e-04
2.869246000000000209e-04
2.661963999999999845e-04
2.395828000000000129e-04
2.072596999999999970e-04
1.698501999999999955e-04
1.284333000000000024e-04
8.446869999999999986e-05
3.964340000000000062e-05
-4.323699999999999786e-06
-4.587330000000000005e-05
-8.375239999999999454e-05
-1.170919999999999963e-04
3.482579999999999986e-04
3.490546999999999769e-04
3.457636000000000043e-04
3.375939999999999800e-04
3.237992000000000084e-04
3.037771999999999890e-04
2.771986000000000263e-04
2.441411999999999792e-04
2.051939999999999873e-04
1.614847999999999891e-04
1.146059999999999934e-04
6.644059999999999539e-05
1.893220000000000146e-05
-2.614439999999999993e-05
-6.735780000000000077e-05
-1.037142000000000039e-04
3.713505000000000083e-04
3.776596999999999918e-04
3.806160999999999963e-04
3.793736000000000027e-04
3.730408999999999743e-04
3.607489999999999981e-04
3.417571000000000215e-04
3.155966999999999865e-04
2.822314000000000029e-04
2.421903000000000044e-04
1.966198999999999909e-04
1.472153999999999932e-04
9.603149999999999696e-05
4.522079999999999909e-05
-3.232099999999999937e-06
-4.771499999999999971e-05
-8.709949999999999507e-05
-1.207585999999999995e-04
3.972398000000000248e-04
4.057212000000000145e-04
4.108453000000000083e-04
4.116998999999999984e-04
4.073093999999999868e-04
3.966996999999999993e-04
3.790069999999999984e-04
3.536311000000000098e-04
3.204155999999999888e-04
2.798082000000000021e-04
2.329378000000000113e-04
1.815580999999999922e-04
1.278523999999999958e-04
7.414790000000000205e-05
2.261880000000000103e-05
-2.494710000000000040e-05
-6.727949999999999848e-05
-1.036526999999999978e-04
4.081387000000000231e-04
4.211713000000000175e-04
4.317179999999999889e-04
4.389233000000000197e-04
4.418232999999999818e-04
4.393775000000000263e-04
4.305326000000000053e-04
4.143285999999999822e-04
3.900558999999999732e-04
3.574455000000000254e-04
3.168491999999999750e-04
2.693400000000000199e-04
2.166748000000000079e-04
1.611043999999999953e-04
1.050779000000000058e-04
5.092420000000000280e-05
5.925000000000000447e-07
-4.450170000000000118e-05
-8.351810000000000256e-05
-1.161432000000000030e-04
4.276853000000000165e-04
4.425327999999999857e-04
4.549552000000000110e-04
4.640655999999999839e-04
4.688628000000000132e-04
4.682638999999999942e-04
4.611657000000000018e-04
4.465480000000000079e-04
4.236252000000000247e-04
3.920362000000000261e-04
3.520320999999999867e-04
3.045953000000000007e-04
2.514247999999999852e-04
1.947669999999999870e-04
1.371261000000000084e-04
8.093740000000000201e-05
2.828739999999999957e-05
-1.926560000000000067e-05
-6.075350000000000032e-05
-9.576350000000000563e-05
-1.243395999999999911e-04
4.263795000000000128e-04
4.443655000000000131e-04
4.607651999999999842e-04
4.747994999999999863e-04
4.855595999999999784e-04
4.920220999999999796e-04
4.930836000000000507e-04
4.876222000000000152e-04
4.745956999999999867e-04
4.531825000000000068e-04
4.229589999999999869e-04
3.840814000000000120e-04
3.374146999999999867e-04
2.845437000000000248e-04
2.276361000000000074e-04
1.691783999999999996e-04
1.116554999999999951e-04
5.725650000000000314e-05
7.670999999999999908e-06
-3.600000000000000091e-05
-7.322739999999999620e-05
-1.039660000000000004e-04
4.386111000000000263e-04
4.577604999999999890e-04
4.753898999999999798e-04
4.907092999999999742e-04
5.027983999999999665e-04
5.106266000000000147e-04
5.130910999999999502e-04
5.090802999999999648e-04
4.975663999999999868e-04
4.777310999999999906e-04
4.491208999999999913e-04
4.118115999999999791e-04
3.665365999999999763e-04
3.147232000000000024e-04
2.583966000000000257e-04
1.999561000000000014e-04
1.418744000000000049e-04
8.639970000000000560e-05
3.532859999999999917e-05
-1.011049999999999917e-05
-4.926499999999999673e-05
-8.198479999999999472e-05
4.475885000000000193e-04
4.675473000000000086e-04
4.860377000000000035e-04
5.022667000000000407e-04
5.153147000000000283e-04
5.241592999999999470e-04
5.277183999999999651e-04
5.249157999999999862e-04
5.147679999999999747e-04
4.964925000000000241e-04
4.696363999999999747e-04
4.342144000000000147e-04
3.908286999999999872e-04
3.407255999999999892e-04
2.857428999999999980e-04
2.281345999999999960e-04
1.703015999999999959e-04
1.144992999999999966e-04
6.259469999999999889e-05
1.592370000000000138e-05
-2.474239999999999879e-05
-5.914120000000000222e-05
4.531369000000000152e-04
4.735241999999999750e-04
4.924775000000000159e-04
5.092111000000000076e-04
5.228185999999999684e-04
5.323017000000000200e-04
5.366178000000000311e-04
5.347464000000000340e-04
5.257699000000000226e-04
5.089648000000000436e-04
4.839016000000000020e-04
4.505549000000000186e-04
4.094087000000000160e-04
3.615261999999999946e-04
3.085365999999999760e-04
2.525075000000000214e-04
1.957147999999999917e-04
1.403658999999999972e-04
8.835110000000000186e-05
4.108040000000000059e-05
-5.727000000000000394e-07
-3.623689999999999859e-05
4.552019999999999829e-04
4.756297999999999841e-04
4.946415999999999704e-04
5.114686000000000449e-04
5.252316000000000146e-04
5.349719999999999866e-04
5.397028999999999585e-04
5.384749999999999563e-04
5.304500000000000187e-04
5.149757000000000032e-04
4.916614000000000357e-04
4.604601000000000267e-04
4.217593000000000058e-04
3.764548000000000265e-04
3.259668999999999978e-04
2.721554000000000269e-04
2.171290999999999944e-04
1.629943999999999924e-04
1.116126000000000027e-04
6.442590000000000263e-05
2.238250000000000127e-05
-1.404939999999999969e-05
4.538559999999999860e-04
4.739523000000000260e-04
4.926365000000000258e-04
5.091670999999999654e-04
5.227043999999999484e-04
5.323441999999999844e-04
5.371686999999999990e-04
5.363100000000000202e-04
5.290152999999999696e-04
5.147080000000000058e-04
4.930426999999999813e-04
4.639671000000000051e-04
4.277958000000000216e-04
3.852837999999999923e-04
3.376583000000000058e-04
2.865662999999999739e-04
2.339216999999999935e-04
1.816859999999999949e-04
1.316412000000000094e-04
8.521690000000000059e-05
4.340269999999999697e-05
6.743099999999999864e-06
4.687229999999999912e-04
4.867356000000000091e-04
5.026260000000000493e-04
5.156051999999999944e-04
5.248346000000000521e-04
5.294752000000000226e-04
5.287456999999999747e-04
5.219794000000000257e-04
5.086735999999999472e-04
4.885303000000000345e-04
4.615026999999999953e-04
4.278555999999999766e-04
3.882315000000000115e-04
3.436886000000000216e-04
2.956688000000000176e-04
2.458790000000000086e-04
1.961042999999999988e-04
1.480068999999999873e-04
1.029623999999999953e-04
6.196639999999999679e-05
4.602934999999999731e-04
4.773514000000000186e-04
4.923227999999999546e-04
5.044783000000000383e-04
5.130526000000000487e-04
5.172904999999999561e-04
5.164981000000000346e-04
5.100919000000000416e-04
4.976381999999999681e-04
4.788851000000000002e-04
4.537987000000000162e-04
4.226116000000000247e-04
3.858795999999999841e-04
3.445170000000000220e-04
2.997772000000000002e-04
2.531600999999999752e-04
2.062588999999999981e-04
1.605880000000000014e-04
1.174360000000000052e-04
7.777300000000000229e-05
4.649931999999999850e-04
4.788414000000000060e-04
4.899827000000000479e-04
4.977290000000000316e-04
5.014095000000000314e-04
5.004154999999999931e-04
4.942409999999999729e-04
4.825157000000000057e-04
4.650309999999999730e-04
4.417692999999999989e-04
4.129436000000000218e-04
3.790425000000000153e-04
3.408594000000000250e-04
2.994787000000000165e-04
2.562037999999999881e-04
2.124338999999999991e-04
1.695222000000000081e-04
1.286476000000000047e-04
4.628149999999999929e-04
4.728253999999999877e-04
4.796399999999999817e-04
4.826701000000000190e-04
4.813867999999999901e-04
4.753555999999999927e-04
4.642633999999999975e-04
4.479414999999999938e-04
4.263897000000000216e-04
3.998083000000000257e-04
3.686324999999999845e-04
3.335532999999999901e-04
2.955065000000000209e-04
2.556155000000000059e-04
2.150943000000000050e-04
1.751323999999999904e-04
1.367883000000000130e-04
4.537036000000000042e-04
4.595431000000000082e-04
4.618825000000000014e-04
4.602666000000000157e-04
4.543254000000000259e-04
4.437975999999999943e-04
4.285499999999999813e-04
4.085992000000000096e-04
3.841359999999999827e-04
3.555505999999999836e-04
3.234469000000000016e-04
2.886308000000000081e-04
2.520650999999999729e-04
2.147934999999999959e-04
4.381313999999999977e-04
4.397817999999999844e-04
4.378251000000000105e-04
4.319490999999999739e-04
4.219383000000000053e-04
4.076913999999999842e-04
3.892392000000000052e-04
3.667639000000000207e-04
3.406163999999999937e-04
3.113246999999999976e-04
2.795820000000000076e-04
2.462106000000000038e-04
4.089065999999999925e-04
3.993816999999999983e-04
3.860728999999999810e-04
3.690225999999999793e-04
3.484037000000000267e-04
3.245316000000000151e-04
1.440149999999999959e-04
1.171595000000000020e-04
8.670759999999999633e-05
5.334040000000000179e-05
1.799240000000000073e-05
-1.821709999999999877e-05
-5.408760000000000033e-05
2.331376000000000021e-04
2.190964000000000052e-04
2.004355000000000091e-04
1.769476999999999931e-04
1.486848000000000032e-04
1.160241000000000061e-04
7.969990000000000581e-05
4.078029999999999985e-05
5.854000000000000406e-07
-3.944419999999999751e-05
-7.789970000000000228e-05
-1.135455999999999992e-04
2.770259000000000068e-04
2.687267000000000236e-04
2.557535999999999902e-04
2.375653999999999938e-04
2.138048000000000032e-04
1.844058000000000090e-04
1.496911999999999874e-04
1.104297999999999977e-04
6.782459999999999433e-05
2.341740000000000046e-05
-2.107549999999999837e-05
-6.396159999999999422e-05
-1.037564999999999950e-04
-1.393164999999999866e-04
3.150720999999999882e-04
3.129868999999999967e-04
3.066047000000000021e-04
2.951413999999999861e-04
2.778788000000000135e-04
2.542768000000000046e-04
2.241114999999999904e-04
1.876116000000000047e-04
1.455527000000000134e-04
9.926409999999999715e-05
5.052339999999999810e-05
1.352799999999999990e-06
-4.623369999999999748e-05
-9.046740000000000055e-05
-1.299941000000000096e-04
-1.639500000000000007e-04
3.457795000000000053e-04
3.497824999999999871e-04
3.501841000000000003e-04
3.460916999999999986e-04
3.365647999999999730e-04
3.206950000000000187e-04
2.977332999999999976e-04
2.672592000000000110e-04
2.293641000000000017e-04
1.847930999999999977e-04
1.349811000000000077e-04
8.194219999999999618e-05
2.802370000000000073e-05
-2.440999999999999838e-05
-7.327730000000000398e-05
-1.169894999999999952e-04
-1.545430999999999942e-04
-1.855024999999999947e-04
3.779343999999999911e-04
3.846820000000000144e-04
3.878029999999999867e-04
3.862951000000000210e-04
3.790689000000000189e-04
3.650255000000000036e-04
3.431934999999999999e-04
3.129278000000000094e-04
2.741417999999999915e-04
2.275063000000000074e-04
1.745267999999999906e-04
1.174348999999999960e-04
5.890179999999999906e-05
1.652900000000000090e-06
-5.189980000000000071e-05
-9.991519999999999503e-05
-1.412329999999999944e-04
-1.753512000000000094e-04
-2.023156999999999983e-04
3.971383999999999787e-04
4.093688999999999965e-04
4.189379000000000128e-04
4.248984000000000246e-04
4.261533999999999982e-04
4.214822000000000013e-04
4.096109000000000121e-04
3.893521999999999955e-04
3.598272000000000232e-04
3.207428000000000015e-04
2.726518999999999839e-04
2.170805999999999897e-04
1.564338000000000132e-04
9.367450000000000581e-05
3.187319999999999834e-05
-2.622939999999999996e-05
-7.852959999999999433e-05
-1.236924999999999884e-04
-1.611274000000000050e-04
-1.908617000000000093e-04
4.077638999999999873e-04
4.244011999999999915e-04
4.393124999999999786e-04
4.516642000000000183e-04
4.604543999999999803e-04
4.645092000000000079e-04
4.625014999999999899e-04
4.530134000000000222e-04
4.346719000000000082e-04
4.063809999999999840e-04
3.676352000000000135e-04
3.188337999999999763e-04
2.614628999999999933e-04
1.980274000000000075e-04
1.317129999999999907e-04
6.588430000000000209e-05
3.585199999999999996e-06
-5.281770000000000085e-05
-1.017957999999999987e-04
-1.426401000000000101e-04
-1.753268000000000101e-04
-2.003313000000000110e-04
4.305367999999999739e-04
4.495569000000000258e-04
4.669906000000000144e-04
4.819709000000000037e-04
4.934498999999999526e-04
5.001943000000000231e-04
5.008000999999999555e-04
4.937471999999999608e-04
4.775277000000000189e-04
4.508752000000000094e-04
4.130936999999999782e-04
3.644100000000000160e-04
3.062054000000000143e-04
2.409864000000000006e-04
1.720551000000000122e-04
1.029827999999999993e-04
3.706610000000000075e-05
-2.307780000000000120e-05
-7.570820000000000132e-05
-1.199622000000000015e-04
-1.557239999999999883e-04
-1.834298999999999901e-04
4.507986000000000176e-04
4.719572000000000220e-04
4.916589000000000506e-04
5.090067000000000202e-04
5.229148000000000303e-04
5.321059000000000379e-04
5.351279999999999492e-04
5.304064000000000044e-04
5.163621999999999873e-04
4.916280000000000303e-04
4.553671999999999928e-04
4.076366999999999794e-04
3.496536999999999757e-04
2.838146999999999849e-04
2.134057000000000022e-04
1.420890000000000011e-04
7.333999999999999916e-05
1.000050000000000022e-05
-4.596410000000000263e-05
-9.350229999999999414e-05
-1.323627000000000126e-04
-1.629005999999999900e-04
-1.858676000000000024e-04
4.444537000000000032e-04
4.680325000000000154e-04
4.910045999999999508e-04
5.126319000000000275e-04
5.319918000000000520e-04
5.479684000000000508e-04
5.592550000000000385e-04
5.643780999999999624e-04
5.617540000000000294e-04
5.497997000000000344e-04
5.271254999999999864e-04
4.928219000000000393e-04
4.467997000000000244e-04
3.900695000000000030e-04
3.248120000000000065e-04
2.541600000000000196e-04
1.817377000000000066e-04
1.111091000000000032e-04
4.529839999999999984e-05
-1.350660000000000041e-05
-6.404100000000000569e-05
-1.058805999999999972e-04
-1.392594000000000037e-04
-1.648555000000000007e-04
4.568986999999999831e-04
4.817914999999999763e-04
5.061796999999999607e-04
5.293119999999999900e-04
5.502473000000000130e-04
5.678490000000000447e-04
5.807962000000000281e-04
5.876187999999999854e-04
5.867636000000000076e-04
5.767021999999999687e-04
5.560956999999999619e-04
5.240317000000000195e-04
4.803138000000000091e-04
4.257280999999999804e-04
3.621618999999999858e-04
2.924776999999999932e-04
2.201398000000000027e-04
1.487016999999999929e-04
8.130829999999999536e-05
2.034560000000000050e-05
-3.270429999999999789e-05
-7.722179999999999984e-05
-1.132876000000000027e-04
-1.414734000000000065e-04
4.659434999999999749e-04
4.917265000000000091e-04
5.170735000000000088e-04
5.412258000000000520e-04
5.632330000000000062e-04
5.819510999999999651e-04
5.960626999999999809e-04
6.041252000000000210e-04
6.046488000000000036e-04
5.962034000000000387e-04
5.775558999999999771e-04
5.478485999999999643e-04
5.068216999999999861e-04
4.550474000000000099e-04
3.940853000000000129e-04
3.264520000000000247e-04
2.553540000000000085e-04
1.842356000000000018e-04
1.162817999999999952e-04
5.402429999999999705e-05
-8.601000000000000321e-07
-4.755470000000000058e-05
-8.596880000000000266e-05
-1.165400000000000057e-04
4.714014000000000095e-04
4.976158000000000274e-04
5.234244000000000093e-04
5.480685000000000331e-04
5.705995999999999638e-04
5.898830999999999563e-04
6.046263999999999545e-04
6.134387999999999517e-04
6.149203000000000221e-04
6.077664999999999890e-04
5.908811999999999832e-04
5.634973999999999626e-04
5.253322999999999847e-04
4.767783999999999954e-04
4.190792999999999840e-04
3.543813000000000150e-04
2.855690000000000030e-04
2.158884999999999982e-04
1.484714999999999896e-04
8.591799999999999969e-05
3.005009999999999881e-05
-1.813869999999999965e-05
-5.838380000000000165e-05
-9.097170000000000180e-05
4.732132000000000113e-04
4.993893999999999590e-04
5.251506000000000403e-04
5.497459000000000113e-04
5.722420999999999671e-04
5.915325999999999614e-04
6.063728000000000434e-04
6.154481999999999531e-04
6.174683999999999512e-04
6.112684000000000173e-04
5.958965000000000095e-04
5.706911000000000492e-04
5.353771000000000007e-04
4.902151999999999682e-04
4.361804999999999957e-04
3.750687000000000161e-04
3.094161000000000003e-04
2.421996000000000045e-04
1.764036999999999929e-04
1.146063000000000008e-04
5.870580000000000297e-05
9.832499999999999457e-06
-3.158839999999999728e-05
-6.568650000000000205e-05
4.714550999999999985e-04
4.971417000000000110e-04
5.223680000000000510e-04
5.463994999999999920e-04
5.683326000000000480e-04
5.871076000000000029e-04
6.015502000000000262e-04
6.104433000000000038e-04
6.126197000000000326e-04
6.070548000000000480e-04
5.929347999999999867e-04
5.697006000000000119e-04
5.371048000000000011e-04
4.953261999999999943e-04
4.451357000000000078e-04
3.880266000000000162e-04
3.261919000000000168e-04
2.622941000000000270e-04
1.990915999999999964e-04
1.390513000000000014e-04
8.407229999999999803e-05
3.536930000000000033e-05
-6.499100000000000168e-06
-4.151249999999999938e-05
4.911251999999999849e-04
5.153831000000000427e-04
5.383987999999999925e-04
5.593113000000000468e-04
5.771255000000000092e-04
5.907558000000000470e-04
5.990976000000000287e-04
6.011130000000000162e-04
5.959112999999999606e-04
5.828009000000000531e-04
5.613149000000000220e-04
5.312446999999999656e-04
4.927285999999999905e-04
4.463962000000000138e-04
3.934965000000000229e-04
3.359050999999999834e-04
2.759540000000000213e-04
2.161215000000000076e-04
1.586926000000000059e-04
1.054963999999999951e-04
5.777619999999999750e-05
1.618719999999999979e-05
-1.911779999999999846e-05
4.817261000000000091e-04
5.046611999999999583e-04
5.262993000000000315e-04
5.458337999999999645e-04
5.623472000000000019e-04
5.748555999999999718e-04
5.823739999999999776e-04
5.839926999999999965e-04
5.789436999999999708e-04
5.666411000000000321e-04
5.466973999999999879e-04
5.189475000000000251e-04
4.835188000000000029e-04
4.409484000000000081e-04
3.922942000000000226e-04
3.391523000000000020e-04
2.835310999999999864e-04
2.276055999999999880e-04
1.734325999999999902e-04
1.227164999999999897e-04
7.667779999999999963e-05
3.602820000000000176e-05
4.907763999999999790e-04
5.107786999999999484e-04
5.286893999999999665e-04
5.436771999999999655e-04
5.548648999999999465e-04
5.613877000000000190e-04
5.624570999999999651e-04
5.574154000000000435e-04
5.457669999999999536e-04
5.271934000000000472e-04
5.015733999999999774e-04
4.690394000000000074e-04
4.300689999999999917e-04
3.855703000000000038e-04
3.368994000000000155e-04
2.857661999999999746e-04
2.340444000000000118e-04
1.835429000000000075e-04
1.358061999999999941e-04
9.199110000000000089e-05
5.282810000000000332e-05
4.743549000000000008e-04
4.925663000000000480e-04
5.087152999999999640e-04
5.220599999999999720e-04
5.318296000000000351e-04
5.372737000000000259e-04
5.377154000000000525e-04
5.325942000000000176e-04
5.214934999999999970e-04
5.041547999999999863e-04
4.804982000000000068e-04
4.506676000000000150e-04
4.150983000000000233e-04
3.745791000000000268e-04
3.302620000000000035e-04
2.835922000000000052e-04
2.361626999999999878e-04
1.895358000000000090e-04
1.450804999999999944e-04
1.038624000000000036e-04
4.723810000000000162e-04
4.867232999999999889e-04
4.983976999999999461e-04
5.067341999999999637e-04
5.110883000000000309e-04
5.108829999999999535e-04
5.056441000000000061e-04
4.950239000000000158e-04
4.788171000000000137e-04
4.569803999999999793e-04
4.296686000000000082e-04
3.972832000000000251e-04
3.605131999999999825e-04
3.203386000000000232e-04
2.779753999999999949e-04
2.347661000000000019e-04
1.920428999999999973e-04
1.509985999999999945e-04
4.634505000000000243e-04
4.734957999999999940e-04
4.804459000000000073e-04
4.837511000000000176e-04
4.829232000000000251e-04
4.775641999999999973e-04
4.673874000000000171e-04
4.522336999999999863e-04
4.320907999999999932e-04
4.071206999999999864e-04
3.776933999999999912e-04
3.444122999999999889e-04
3.081116000000000063e-04
2.698121999999999847e-04
2.306397000000000069e-04
1.917203000000000082e-04
4.536890999999999927e-04
4.560219999999999920e-04
4.546255999999999930e-04
4.491686999999999741e-04
4.394181999999999732e-04
4.252551000000000139e-04
4.066915999999999739e-04
3.838919999999999898e-04
3.571952999999999782e-04
3.271295999999999926e-04
2.944048000000000108e-04
2.598777000000000140e-04
4.210899000000000152e-04
4.117608999999999831e-04
3.985354999999999996e-04
3.814442000000000028e-04
3.606492999999999895e-04
3.364587999999999845e-04
1.188911999999999977e-04
9.011810000000000035e-05
5.782979999999999984e-05
2.279129999999999980e-05
-1.397770000000000002e-05
-5.128230000000000196e-05
-8.786459999999999897e-05
2.147445999999999904e-04
1.987037999999999999e-04
1.778418000000000089e-04
1.519826999999999908e-04
1.212385999999999949e-04
8.607719999999999640e-05
4.734810000000000158e-05
6.248699999999999990e-06
-3.577359999999999915e-05
-7.717050000000000255e-05
-1.164592999999999981e-04
-1.523728999999999925e-04
2.626843999999999815e-04
2.525685999999999860e-04
2.374618000000000106e-04
2.168000999999999913e-04
1.902325000000000120e-04
1.577413000000000003e-04
1.197485000000000005e-04
7.717289999999999426e-05
3.140490000000000149e-05
-1.581250000000000149e-05
-6.257870000000000446e-05
-1.070617000000000053e-04
-1.477006000000000000e-04
-1.833441000000000053e-04
3.054728999999999734e-04
3.020467999999999894e-04
2.939722999999999772e-04
2.803840999999999842e-04
2.604921999999999858e-04
2.337153000000000017e-04
1.998432999999999980e-04
1.591979999999999893e-04
1.127368999999999946e-04
6.204929999999999560e-05
9.216400000000000392e-06
-4.344250000000000292e-05
-9.367410000000000493e-05
-1.395644999999999883e-04
-1.797201000000000007e-04
-2.133341000000000078e-04
-2.401509999999999984e-04
3.411271000000000225e-04
3.444593000000000242e-04
3.438970000000000178e-04
3.384325999999999893e-04
3.269901999999999987e-04
3.085203000000000012e-04
2.821556000000000129e-04
2.474228999999999990e-04
2.044725999999999911e-04
1.542523000000000071e-04
9.854129999999999790e-05
3.979389999999999859e-05
-1.918680000000000068e-05
-7.565269999999999482e-05
-1.272746999999999963e-04
-1.723778999999999882e-04
-2.100186999999999887e-04
-2.399289999999999995e-04
3.685208999999999837e-04
3.780786999999999755e-04
3.847190000000000006e-04
3.874497999999999983e-04
3.851150999999999815e-04
3.764282000000000088e-04
3.600605999999999794e-04
3.348138999999999759e-04
2.998812000000000114e-04
2.551601000000000238e-04
2.015204999999999894e-04
1.409019000000000070e-04
7.614820000000000388e-05
1.059850000000000025e-05
-5.243939999999999805e-05
-1.101649000000000064e-04
-1.605836999999999987e-04
-2.025971000000000054e-04
-2.359188000000000019e-04
-2.608945000000000209e-04
4.022103000000000071e-04
4.151698000000000107e-04
4.253530999999999848e-04
4.316858000000000132e-04
4.328832000000000231e-04
4.274640999999999923e-04
4.138247999999999753e-04
3.904139000000000264e-04
3.560365999999999921e-04
3.102582000000000105e-04
2.537896000000000206e-04
1.886741999999999901e-04
1.181301999999999960e-04
4.605370000000000259e-05
-2.364889999999999985e-05
-8.766450000000000067e-05
-1.436475000000000100e-04
-1.903207000000000022e-04
-2.273642999999999942e-04
-2.551890000000000126e-04
-2.746816000000000231e-04
4.170067999999999865e-04
4.351021000000000164e-04
4.515167000000000269e-04
4.653327999999999978e-04
4.754105999999999914e-04
4.803620000000000199e-04
4.785435999999999900e-04
4.681067999999999818e-04
4.471618999999999919e-04
4.141083999999999737e-04
3.681234999999999933e-04
3.096767000000000161e-04
2.408313999999999995e-04
1.651172000000000121e-04
8.695359999999999364e-05
1.083880000000000031e-05
-5.939039999999999977e-05
-1.210130999999999951e-04
-1.725429999999999911e-04
-2.135937999999999878e-04
-2.446104999999999851e-04
-2.665729000000000037e-04
4.231959999999999780e-04
4.451511000000000010e-04
4.663976999999999815e-04
4.861876999999999800e-04
5.035680999999999534e-04
5.173464000000000448e-04
5.260555000000000526e-04
5.279304999999999762e-04
5.209337000000000299e-04
5.028950999999999821e-04
4.718454000000000073e-04
4.265655000000000141e-04
3.672203000000000186e-04
2.957867999999999782e-04
2.159832999999999892e-04
1.326440000000000128e-04
5.078559999999999704e-05
-2.525950000000000100e-05
-9.238130000000000267e-05
-1.488426000000000104e-04
-1.941362000000000133e-04
-2.286877000000000094e-04
-2.535241999999999943e-04
-2.699833999999999806e-04
4.464205999999999860e-04
4.710951000000000223e-04
4.952952999999999740e-04
5.182516000000000509e-04
5.389763999999999580e-04
5.562298000000000459e-04
5.684833000000000464e-04
5.738908999999999504e-04
5.702965999999999635e-04
5.553462999999999586e-04
5.268003000000000052e-04
4.831004000000000071e-04
4.240835000000000199e-04
3.515238999999999972e-04
2.691473000000000108e-04
1.820104000000000014e-04
9.550129999999999991e-05
1.437629999999999990e-05
-5.786309999999999831e-05
-1.191765000000000066e-04
-1.688615000000000027e-04
-2.072502999999999900e-04
-2.353552000000000129e-04
-2.545493000000000126e-04
4.670586999999999807e-04
4.941697000000000537e-04
5.210193999999999806e-04
5.468146999999999808e-04
5.705315999999999773e-04
5.908824999999999928e-04
6.062878000000000061e-04
6.148524999999999954e-04
6.143734000000000087e-04
6.024300999999999701e-04
5.766576999999999727e-04
5.352800999999999913e-04
4.778348000000000079e-04
4.057881000000000053e-04
3.226538999999999839e-04
2.334543000000000122e-04
1.437397999999999888e-04
5.857999999999999818e-05
-1.814499999999999991e-05
-8.403799999999999736e-05
-1.381196999999999915e-04
-1.805450000000000002e-04
-2.122392000000000126e-04
-2.345559999999999952e-04
-2.490079000000000185e-04
4.559289000000000115e-04
4.845779999999999944e-04
5.137508999999999739e-04
5.428445999999999966e-04
5.710434999999999817e-04
5.972862000000000006e-04
6.202380999999999867e-04
6.382735000000000275e-04
6.494722999999999989e-04
6.516440999999999770e-04
6.424160000000000374e-04
6.194590999999999726e-04
5.809387999999999748e-04
5.261689000000000166e-04
4.562359000000000206e-04
3.742287999999999973e-04
2.848600999999999868e-04
1.936049000000000071e-04
1.057061999999999943e-04
2.538499999999999836e-05
-4.457060000000000318e-05
-1.028350000000000005e-04
-1.493087000000000092e-04
-1.847596999999999922e-04
-2.104639999999999961e-04
-2.279124999999999901e-04
4.684129999999999891e-04
4.985131999999999758e-04
5.292870000000000300e-04
5.601239999999999518e-04
5.901889999999999697e-04
6.183878000000000291e-04
6.433441999999999720e-04
6.633954999999999540e-04
6.766161999999999611e-04
6.808747999999999884e-04
6.739359999999999795e-04
6.536457999999999548e-04
6.182667999999999671e-04
5.669917000000000012e-04
5.005081000000000200e-04
4.213255999999999967e-04
3.336160999999999923e-04
2.425550000000000113e-04
1.534007000000000101e-04
7.063830000000000434e-05
-2.563199999999999870e-06
-6.449950000000000138e-05
-1.147627999999999984e-04
-1.539041999999999960e-04
-1.830664999999999929e-04
-2.036717999999999970e-04
4.774280000000000104e-04
5.084967000000000133e-04
5.403358000000000249e-04
5.723298999999999834e-04
6.036299000000000395e-04
6.331187999999999530e-04
6.593923999999999922e-04
6.807694999999999675e-04
6.953432000000000276e-04
7.010770000000000370e-04
6.959317000000000237e-04
6.780176999999999645e-04
6.458081000000000281e-04
5.984755999999999930e-04
5.363472000000000205e-04
4.612996000000000175e-04
3.768285000000000124e-04
2.876361999999999821e-04
1.988302000000000060e-04
1.150341000000000037e-04
3.972609999999999900e-05
-2.503070000000000075e-05
-7.850149999999999370e-05
-1.209795000000000027e-04
-1.534255000000000102e-04
-1.771452999999999927e-04
4.827804000000000101e-04
5.142913999999999732e-04
5.466075000000000144e-04
5.791098000000000166e-04
6.109426999999999740e-04
6.409802000000000468e-04
6.678120999999999753e-04
6.897675000000000464e-04
7.049919999999999885e-04
7.115762999999999993e-04
7.077064999999999571e-04
6.917903999999999894e-04
6.625615000000000497e-04
6.192484000000000053e-04
5.619028999999999561e-04
4.918226000000000368e-04
4.118093999999999878e-04
3.259894000000000268e-04
2.391596000000000065e-04
1.559146999999999931e-04
7.991140000000000201e-05
1.349720000000000013e-05
-4.228670000000000291e-05
-8.745860000000000320e-05
-1.227589000000000013e-04
-1.493326000000000007e-04
4.844072000000000265e-04
5.158194999999999968e-04
5.480049999999999548e-04
5.803431000000000171e-04
6.119796000000000047e-04
6.417963000000000270e-04
6.684042000000000065e-04
6.901801000000000160e-04
7.053617999999999997e-04
7.121980999999999668e-04
7.091076999999999667e-04
6.947810000000000010e-04
6.682037999999999736e-04
6.287016000000000522e-04
5.761578999999999746e-04
5.114240000000000149e-04
4.366878999999999835e-04
3.554712999999999927e-04
2.721285000000000153e-04
1.910446000000000106e-04
1.158883000000000065e-04
4.917639999999999897e-05
-7.799799999999999420e-06
-5.479179999999999945e-05
-9.229860000000000429e-05
-1.212686000000000064e-04
4.823857000000000188e-04
5.131772000000000373e-04
5.446468000000000316e-04
5.761755000000000132e-04
6.069193999999999544e-04
6.357866999999999685e-04
6.614391000000000281e-04
6.823397000000000360e-04
6.968582000000000292e-04
7.034247000000000416e-04
7.006815000000000439e-04
6.875588999999999876e-04
6.632524000000000535e-04
6.271964000000000315e-04
5.792071000000000199e-04
5.198486000000000426e-04
4.508281999999999741e-04
3.750949999999999857e-04
2.964776999999999820e-04
2.189966999999999966e-04
1.461663000000000036e-04
8.054090000000000674e-05
2.358120000000000048e-05
-2.423160000000000022e-05
-6.315410000000000576e-05
-9.391780000000000397e-05
5.066289000000000512e-04
5.368617000000000441e-04
5.670132999999999944e-04
5.962619000000000382e-04
6.235610000000000154e-04
6.476509999999999559e-04
6.671143000000000038e-04
6.804814999999999866e-04
6.863750999999999533e-04
6.836401000000000413e-04
6.713973000000000033e-04
6.490006000000000420e-04
6.159899999999999621e-04
5.721904000000000096e-04
5.180167999999999969e-04
4.548328000000000136e-04
3.850848000000000031e-04
3.120503999999999964e-04
2.392849999999999968e-04
1.700167999999999948e-04
1.067147999999999968e-04
5.091810000000000297e-05
3.288200000000000129e-06
-3.621030000000000125e-05
-6.808990000000000008e-05
4.965816000000000500e-04
5.251525000000000377e-04
5.534757000000000175e-04
5.807632000000000506e-04
6.060319000000000209e-04
6.281232000000000308e-04
6.457607000000000191e-04
6.576502000000000346e-04
6.626031000000000325e-04
6.596409999999999817e-04
6.480309000000000503e-04
6.272453000000000100e-04
5.969206000000000121e-04
5.569349000000000131e-04
5.076472999999999533e-04
4.501875000000000126e-04
3.865817999999999924e-04
3.195817000000000102e-04
2.522406000000000257e-04
1.874206000000000060e-04
1.274109999999999902e-04
7.374440000000000498e-05
2.719959999999999959e-05
-1.207510000000000065e-05
5.101406999999999860e-04
5.363183999999999573e-04
5.613334000000000422e-04
5.842806000000000518e-04
6.041161999999999878e-04
6.197146000000000382e-04
6.299555999999999559e-04
6.338255000000000321e-04
6.304961999999999893e-04
6.193499000000000313e-04
5.999512000000000031e-04
5.720239999999999700e-04
5.355158000000000270e-04
4.907782000000000507e-04
4.387800999999999767e-04
3.812059000000000020e-04
3.203373999999999935e-04
2.587409000000000150e-04
1.988849000000000107e-04
1.428211999999999939e-04
9.200809999999999750e-05
4.728010000000000155e-05
8.922399999999999480e-06
4.925029000000000039e-04
5.163506999999999689e-04
5.389299999999999646e-04
5.594222000000000257e-04
5.769034999999999832e-04
5.903971999999999519e-04
5.989462000000000085e-04
6.016920999999999511e-04
5.979343999999999718e-04
5.871506000000000294e-04
5.689828999999999764e-04
5.432323999999999660e-04
5.099142999999999775e-04
4.693879999999999992e-04
4.225039999999999785e-04
3.706701999999999870e-04
3.157672999999999947e-04
2.599222000000000099e-04
2.052214999999999866e-04
1.534564000000000034e-04
1.059659999999999948e-04
6.358780000000000129e-05
4.943645000000000201e-04
5.144702000000000129e-04
5.325015999999999907e-04
5.476530999999999760e-04
5.590869999999999954e-04
5.659928000000000268e-04
5.676473000000000022e-04
5.634595999999999745e-04
5.529902000000000168e-04
5.359495000000000361e-04
5.122052999999999459e-04
4.818285000000000168e-04
4.451839999999999986e-04
4.030260999999999935e-04
3.565373000000000262e-04
3.072648999999999997e-04
2.569579000000000221e-04
2.073561999999999985e-04
1.599939999999999999e-04
1.160673999999999994e-04
4.887735000000000257e-04
5.044321000000000048e-04
5.173642000000000431e-04
5.268574999999999951e-04
5.322298000000000046e-04
5.328747000000000431e-04
5.282969000000000206e-04
5.181305999999999889e-04
5.021477000000000102e-04
4.802707999999999825e-04
4.526115000000000151e-04
4.195307999999999915e-04
3.816981000000000106e-04
3.401103000000000156e-04
2.960409999999999799e-04
2.509235000000000176e-04
2.061970000000000046e-04
1.631582999999999927e-04
4.759696999999999908e-04
4.868466000000000221e-04
4.945630999999999812e-04
4.985477000000000311e-04
4.982946000000000250e-04
4.933920000000000493e-04
4.835406000000000101e-04
4.685658999999999788e-04
4.484345000000000041e-04
4.232835000000000005e-04
3.934602000000000043e-04
3.595561999999999847e-04
3.224130999999999980e-04
2.830813999999999965e-04
2.427351000000000064e-04
2.025596999999999912e-04
4.628532999999999888e-04
4.656136000000000172e-04
4.645887000000000129e-04
4.594398999999999987e-04
4.499263999999999889e-04
4.359198000000000001e-04
4.174199999999999981e-04
3.945771999999999734e-04
3.677171000000000237e-04
3.373596000000000082e-04
3.042152999999999806e-04
2.691527000000000090e-04
4.177728999999999926e-04
4.046968000000000180e-04
3.669909000000000170e-04
5.993560000000000261e-05
2.637549999999999845e-05
-9.645100000000000201e-06
-4.705390000000000023e-05
-8.462410000000000179e-05
1.729435999999999886e-04
1.499094999999999985e-04
1.218689000000000014e-04
8.901709999999999853e-05
5.191989999999999735e-05
1.152960000000000054e-05
-3.086180000000000325e-05
-7.373359999999999485e-05
-1.154940000000000025e-04
-1.546510999999999871e-04
-1.899612999999999866e-04
2.420890999999999993e-04
2.297946000000000038e-04
2.122818000000000112e-04
1.890080000000000037e-04
1.596746999999999978e-04
1.243530999999999868e-04
8.358880000000000173e-05
3.844879999999999685e-05
-9.521299999999999794e-06
-5.843859999999999983e-05
-1.062978000000000040e-04
-1.512112000000000135e-04
-1.916158999999999961e-04
-2.264066000000000017e-04
2.890381999999999934e-04
2.836963999999999762e-04
2.733850999999999924e-04
2.571973999999999983e-04
2.343234999999999936e-04
2.042013999999999928e-04
1.666965000000000124e-04
1.222705999999999945e-04
7.208129999999999713e-05
1.795660000000000016e-05
-3.778020000000000125e-05
-9.260390000000000288e-05
-1.441245999999999923e-04
-1.903773000000000043e-04
-2.300025999999999991e-04
-2.622960000000000244e-04
-2.871481999999999962e-04
3.294702999999999955e-04
3.314362000000000167e-04
3.291939999999999927e-04
3.216437000000000050e-04
3.076094000000000029e-04
2.859528000000000178e-04
2.557573999999999850e-04
2.165756999999999871e-04
1.686896000000000120e-04
1.132963000000000015e-04
5.252289999999999818e-05
-1.078289999999999971e-05
-7.345169999999999336e-05
-1.324641000000000045e-04
-1.853564999999999998e-04
-2.304623999999999909e-04
-2.669646999999999819e-04
-2.947984000000000064e-04
-3.144690999999999806e-04
3.617657000000000251e-04
3.706642999999999809e-04
3.764309000000000079e-04
3.779690000000000263e-04
3.739824999999999790e-04
3.630102999999999759e-04
3.435342999999999882e-04
3.141899000000000189e-04
2.740883000000000165e-04
2.232000000000000043e-04
1.626738999999999876e-04
9.492980000000000038e-05
2.342030000000000004e-05
-4.790450000000000188e-05
-1.152544999999999991e-04
-1.755604000000000073e-04
-2.267925000000000008e-04
-2.680105999999999916e-04
-2.992115000000000269e-04
-3.210765000000000082e-04
3.852323999999999744e-04
4.001621000000000019e-04
4.131208000000000037e-04
4.231527999999999917e-04
4.290601000000000224e-04
4.293739999999999992e-04
4.223575999999999828e-04
4.060878000000000187e-04
3.786732999999999918e-04
3.386500000000000187e-04
2.855166000000000236e-04
2.202434000000000130e-04
1.455003000000000069e-04
6.540509999999999488e-05
-1.518189999999999943e-05
-9.155850000000000100e-05
-1.599441000000000057e-04
-2.178910000000000048e-04
-2.643227999999999962e-04
-2.993097999999999917e-04
-3.237285000000000228e-04
-3.389215999999999908e-04
4.197458999999999956e-04
4.386448000000000257e-04
4.558906999999999955e-04
4.704919999999999805e-04
4.811799000000000176e-04
4.863517999999999943e-04
4.840339000000000143e-04
4.719142999999999754e-04
4.475384999999999910e-04
4.087580000000000055e-04
3.544330000000000267e-04
2.851913999999999881e-04
2.038606000000000044e-04
1.152358000000000055e-04
2.517679999999999923e-05
-6.059259999999999988e-05
-1.374939999999999951e-04
-2.026122000000000047e-04
-2.547129000000000190e-04
-2.939328000000000058e-04
-3.213418999999999802e-04
-3.385247000000000082e-04
4.299727999999999840e-04
4.534092999999999891e-04
4.763114000000000150e-04
4.979042999999999620e-04
5.171737999999999509e-04
5.328053000000000129e-04
5.431070000000000298e-04
5.459298999999999923e-04
5.386381999999999889e-04
5.182470000000000002e-04
4.818840000000000233e-04
4.276465000000000127e-04
3.556475999999999930e-04
2.687246999999999921e-04
1.722755999999999875e-04
7.315580000000000184e-05
-2.185690000000000075e-05
-1.073432999999999994e-04
-1.798775000000000070e-04
-2.380240999999999900e-04
-2.819438999999999756e-04
-3.128620000000000142e-04
-3.325736000000000035e-04
-3.430657000000000042e-04
4.584378999999999971e-04
4.854198999999999905e-04
5.122171999999999923e-04
5.380440000000000006e-04
5.618635999999999986e-04
5.823264000000000088e-04
5.976840000000000191e-04
6.056800000000000421e-04
6.034589999999999833e-04
5.876228999999999741e-04
5.546514000000000002e-04
5.018588000000000476e-04
4.287143999999999894e-04
3.378686999999999793e-04
2.351216999999999955e-04
1.281645999999999892e-04
2.473540000000000038e-05
-6.892880000000000318e-05
-1.488489999999999974e-04
-2.133081000000000050e-04
-2.623974999999999962e-04
-2.974129000000000269e-04
-3.202944000000000212e-04
-3.331979999999999903e-04
-3.382158999999999817e-04
4.550884999999999848e-04
4.846645999999999810e-04
5.149697000000000172e-04
5.454192999999999975e-04
5.752087000000000346e-04
6.032674000000000239e-04
6.282024000000000418e-04
6.482174000000000052e-04
6.609988000000000452e-04
6.635890000000000191e-04
6.523641000000000379e-04
6.233668999999999625e-04
5.732664000000000379e-04
5.008595999999999708e-04
4.083914000000000012e-04
3.017168999999999776e-04
1.890082999999999976e-04
7.871119999999999950e-05
-2.221240000000000099e-05
-1.091840999999999970e-04
-1.800771000000000110e-04
-2.347667999999999966e-04
-2.744906999999999772e-04
-3.012359999999999734e-04
-3.172626000000000005e-04
-3.247853999999999889e-04
4.757218000000000232e-04
5.079782000000000351e-04
5.412694999999999920e-04
5.750034999999999912e-04
6.083478000000000236e-04
6.401834999999999600e-04
6.690535000000000275e-04
6.930983999999999843e-04
7.099651000000000442e-04
7.166905999999999581e-04
7.096395999999999607e-04
6.847323999999999902e-04
6.382913999999999515e-04
5.685498999999999891e-04
4.771479999999999927e-04
3.695368999999999889e-04
2.538401999999999824e-04
1.388205999999999902e-04
3.201040000000000103e-05
-6.136349999999999617e-05
-1.386071999999999966e-04
-1.992004999999999980e-04
-2.441675000000000030e-04
-2.754278999999999994e-04
-2.952669000000000105e-04
-3.059731999999999795e-04
4.932165999999999764e-04
5.277422999999999836e-04
5.635692999999999779e-04
6.000975000000000189e-04
6.364641000000000309e-04
6.714922999999999812e-04
7.036428999999999644e-04
7.309694999999999951e-04
7.510713999999999932e-04
7.610361000000000166e-04
7.574020000000000101e-04
7.363030000000000009e-04
6.941064999999999518e-04
6.287112999999999990e-04
5.410260000000000069e-04
4.356238000000000016e-04
3.199839999999999911e-04
2.027293000000000107e-04
9.176370000000000371e-05
-7.015099999999999971e-06
-9.020800000000000097e-05
-1.567317999999999891e-04
-2.072486999999999864e-04
-2.434938999999999897e-04
-2.676943000000000096e-04
-2.821553999999999989e-04
-2.890138000000000212e-04
4.727105999999999799e-04
5.071023999999999714e-04
5.433877000000000151e-04
5.811860999999999547e-04
6.198920000000000341e-04
6.586158000000000377e-04
6.961250999999999464e-04
7.307954999999999660e-04
7.605825000000000519e-04
7.830273999999999698e-04
7.952912000000000132e-04
7.942051000000000102e-04
7.763816000000000207e-04
7.385996000000000358e-04
6.787050000000000418e-04
5.968628999999999601e-04
4.964222000000000122e-04
3.837153000000000157e-04
2.667966999999999930e-04
1.537052999999999868e-04
5.095039999999999926e-05
-3.731199999999999784e-05
-1.093351999999999963e-04
-1.653059999999999924e-04
-2.066717000000000087e-04
-2.355151000000000043e-04
-2.540930999999999745e-04
-2.645502000000000205e-04
4.815832999999999941e-04
5.170049000000000346e-04
5.544522000000000513e-04
5.935508000000000364e-04
6.336913000000000224e-04
6.739641999999999465e-04
7.130936000000000262e-04
7.493851000000000158e-04
7.807121999999999890e-04
8.045716000000000066e-04
8.182174000000000174e-04
8.188275000000000067e-04
8.036299999999999477e-04
7.700451999999999774e-04
7.161115000000000232e-04
6.413649000000000433e-04
5.478313999999999536e-04
4.404294000000000221e-04
3.263235999999999871e-04
2.134071999999999987e-04
1.086109000000000006e-04
1.675960000000000129e-05
-5.973639999999999950e-05
-1.205326999999999988e-04
-1.667057000000000055e-04
-2.001086999999999972e-04
-2.228750999999999898e-04
-2.370980999999999924e-04
4.868054000000000131e-04
5.226812999999999858e-04
5.606285000000000348e-04
6.002731999999999773e-04
6.410012000000000522e-04
6.818888000000000163e-04
7.216326000000000337e-04
7.584986000000000159e-04
7.903221000000000204e-04
8.146060999999999797e-04
8.287389999999999948e-04
8.302626000000000017e-04
8.170245000000000242e-04
7.871312000000000100e-04
7.389500999999999709e-04
6.715993000000000396e-04
5.859611000000000030e-04
4.855651999999999907e-04
3.765107999999999866e-04
2.662346000000000005e-04
1.617683999999999876e-04
6.837510000000000202e-05
-1.098020000000000034e-05
-7.542790000000000334e-05
-1.256200000000000068e-04
-1.631013999999999966e-04
-1.898027000000000047e-04
-2.076976000000000017e-04
4.883135000000000470e-04
5.240496999999999777e-04
5.618088999999999939e-04
6.012097000000000318e-04
6.416291000000000399e-04
6.821336000000000109e-04
7.214110999999999614e-04
7.577271999999999914e-04
7.889429000000000320e-04
8.126477999999999480e-04
8.264287999999999842e-04
8.281900000000000242e-04
8.163083999999999922e-04
7.894647000000000513e-04
7.463714000000000416e-04
6.859703000000000415e-04
6.083711999999999800e-04
5.159754000000000337e-04
4.137925000000000197e-04
3.085181999999999898e-04
2.069038999999999893e-04
1.143287999999999954e-04
3.412090000000000056e-05
-3.239420000000000233e-05
-8.542739999999999459e-05
-1.261571999999999921e-04
-1.562395000000000006e-04
-1.774595999999999975e-04
5.212049999999999539e-04
5.581107999999999555e-04
5.965041000000000137e-04
6.357500999999999560e-04
6.749117999999999914e-04
7.126905000000000436e-04
7.473961999999999576e-04
7.769867999999999653e-04
7.992239000000000374e-04
8.119553000000000490e-04
8.134283999999999655e-04
8.024158999999999892e-04
7.779905999999999844e-04
7.391525999999999609e-04
6.848728000000000541e-04
6.148956999999999817e-04
5.308549999999999987e-04
4.367689999999999919e-04
3.384074999999999952e-04
2.419071999999999867e-04
1.524363000000000096e-04
7.345360000000000431e-05
6.622700000000000136e-06
-4.785699999999999937e-05
-9.077350000000000089e-05
-1.234584999999999903e-04
-1.474528999999999922e-04
5.144139000000000047e-04
5.498716999999999754e-04
5.865834000000000326e-04
6.239042999999999889e-04
6.609053999999999623e-04
6.963276000000000448e-04
7.285707999999999464e-04
7.557525000000000050e-04
7.758711999999999857e-04
7.870693000000000437e-04
7.878976999999999899e-04
7.773944999999999987e-04
7.548604000000000208e-04
7.195117999999999913e-04
6.704820999999999481e-04
6.074614999999999572e-04
5.316424999999999840e-04
4.462207000000000152e-04
3.559913999999999744e-04
2.662715999999999868e-04
1.817629999999999875e-04
1.058361999999999948e-04
4.034590000000000279e-05
-1.417139999999999954e-05
-5.813020000000000123e-05
-9.252160000000000538e-05
5.040879000000000497e-04
5.376120000000000291e-04
5.721056000000000405e-04
6.069221000000000078e-04
6.411572000000000148e-04
6.736192000000000438e-04
7.028362999999999711e-04
7.271277999999999943e-04
7.447591999999999624e-04
7.541644000000000125e-04
7.541447000000000168e-04
7.439067999999999636e-04
7.228746999999999994e-04
6.904310999999999565e-04
6.459289000000000220e-04
5.891736000000000065e-04
5.211385999999999710e-04
4.443777999999999791e-04
3.627796999999999988e-04
2.807829000000000184e-04
2.024798000000000125e-04
1.309845999999999927e-04
6.819869999999999470e-05
1.489650000000000044e-05
-2.901689999999999996e-05
-6.420879999999999416e-05
5.219756999999999566e-04
5.538758999999999870e-04
5.858054000000000342e-04
6.169033000000000199e-04
6.460694000000000116e-04
6.719853999999999715e-04
6.931889999999999797e-04
7.082106000000000122e-04
7.157459000000000347e-04
7.147946999999999548e-04
7.046755000000000466e-04
6.848893000000000428e-04
6.549565000000000031e-04
6.144501999999999603e-04
5.633431999999999632e-04
5.025067000000000249e-04
4.340080999999999757e-04
3.609606000000000012e-04
2.869775000000000082e-04
2.155042000000000025e-04
1.493002000000000109e-04
9.019580000000000132e-05
3.909990000000000151e-05
-3.836700000000000044e-06
-3.900110000000000171e-05
5.036644000000000494e-04
5.327555999999999785e-04
5.616039000000000187e-04
5.894078999999999985e-04
6.151750000000000317e-04
6.377496999999999767e-04
6.558843000000000182e-04
6.683496000000000358e-04
6.740636000000000154e-04
6.721849000000000227e-04
6.621176000000000318e-04
6.434277000000000399e-04
6.157558000000000042e-04
5.788638999999999720e-04
5.328763000000000466e-04
4.786063999999999922e-04
4.177518999999999872e-04
3.527965999999999893e-04
2.866399000000000269e-04
2.221175999999999890e-04
1.615995999999999969e-04
1.067666999999999954e-04
5.857270000000000250e-05
1.733590000000000117e-05
5.095842999999999857e-04
5.353158000000000222e-04
5.598404999999999875e-04
5.822800000000000155e-04
6.016382000000000023e-04
6.168633999999999663e-04
6.269351000000000481e-04
6.309555999999999802e-04
6.282141000000000201e-04
6.181926999999999605e-04
6.005230000000000507e-04
5.749496999999999681e-04
5.413812999999999525e-04
5.000509000000000204e-04
4.517217000000000020e-04
3.978035000000000208e-04
3.402829000000000010e-04
2.814720999999999846e-04
2.236732000000000119e-04
1.688774000000000037e-04
1.185759999999999977e-04
7.370169999999999944e-05
5.078246000000000236e-04
5.292069000000000373e-04
5.485060999999999626e-04
5.648737999999999719e-04
5.774302999999999728e-04
5.853305999999999960e-04
5.878306000000000026e-04
5.843315999999999875e-04
5.743913999999999704e-04
5.577081000000000009e-04
5.341143999999999493e-04
5.036224999999999643e-04
4.665302000000000077e-04
4.235442999999999760e-04
3.758437000000000214e-04
3.250252000000000132e-04
2.729319000000000016e-04
2.214200000000000044e-04
1.721388000000000128e-04
1.263795999999999919e-04
4.983239000000000418e-04
5.147380000000000445e-04
5.283948000000000117e-04
5.385617000000000312e-04
5.445406999999999548e-04
5.457157999999999497e-04
5.415873999999999775e-04
5.317864999999999745e-04
5.160756000000000501e-04
4.943575000000000183e-04
4.667125999999999740e-04
4.334672000000000026e-04
3.952639999999999886e-04
3.530922999999999939e-04
3.082428000000000229e-04
2.621888000000000061e-04
2.164237000000000062e-04
1.723027999999999929e-04
4.816406000000000181e-04
4.928868999999999785e-04
5.009549999999999767e-04
5.052690000000000306e-04
5.053215000000000441e-04
5.007004000000000012e-04
4.911051999999999952e-04
4.763565999999999786e-04
4.564111000000000253e-04
4.313899999999999744e-04
4.016216999999999769e-04
3.676810999999999990e-04
3.303986000000000184e-04
2.908235000000000117e-04
2.501386999999999773e-04
2.095470000000000047e-04
4.650794999999999777e-04
4.679778000000000106e-04
4.671049000000000143e-04
4.621251999999999847e-04
4.527997999999999875e-04
4.389994999999999835e-04
4.207195999999999961e-04
3.981023999999999782e-04
3.714623000000000230e-04
3.413056999999999940e-04
3.083297999999999833e-04
2.733915000000000065e-04
1.429806000000000046e-04
1.179982999999999981e-04
8.817629999999999804e-05
5.380549999999999840e-05
1.554340000000000097e-05
-2.558319999999999927e-05
-6.823740000000000502e-05
-1.108894000000000025e-04
-1.519740000000000056e-04
-1.900546999999999881e-04
2.158588999999999875e-04
2.011588000000000026e-04
1.811403000000000112e-04
1.553295999999999909e-04
1.235254000000000083e-04
8.592020000000000451e-05
4.319180000000000209e-05
-3.467800000000000069e-06
-5.241539999999999963e-05
-1.017122000000000051e-04
-1.493455000000000086e-04
-1.934644999999999974e-04
-2.325777000000000009e-04
-2.656728000000000019e-04
2.659512999999999960e-04
2.581675000000000181e-04
2.451566999999999765e-04
2.260243999999999903e-04
2.000073000000000053e-04
1.666341000000000111e-04
1.259083999999999887e-04
7.846810000000000178e-05
2.566339999999999895e-05
-3.049819999999999880e-05
-8.755629999999999381e-05
-1.429102000000000128e-04
-1.941629000000000109e-04
-2.394045000000000081e-04
-2.773776000000000258e-04
-3.075080000000000109e-04
3.105842999999999733e-04
3.104321000000000055e-04
3.057455000000000155e-04
2.953701999999999999e-04
2.780896999999999948e-04
2.527590000000000240e-04
2.185132000000000003e-04
1.750339999999999915e-04
1.228137000000000130e-04
6.332420000000000605e-05
-1.007799999999999905e-06
-6.706160000000000181e-05
-1.314672000000000074e-04
-1.911080000000000005e-04
-2.435322000000000127e-04
-2.871791999999999965e-04
-3.214032000000000130e-04
-3.463423000000000196e-04
3.476301999999999908e-04
3.550030999999999825e-04
3.589619000000000165e-04
3.583190999999999894e-04
3.516664000000000183e-04
3.374224999999999902e-04
3.139665999999999833e-04
2.798910999999999739e-04
2.343711999999999965e-04
1.775856000000000027e-04
1.110401999999999944e-04
3.762049999999999666e-05
-3.872920000000000182e-05
-1.136394000000000016e-04
-1.830529999999999972e-04
-2.438236999999999946e-04
-2.940220000000000116e-04
-3.329377000000000226e-04
-3.608667999999999989e-04
-3.788029000000000049e-04
3.759174000000000001e-04
3.900349000000000220e-04
4.020242000000000260e-04
4.108490000000000232e-04
4.151895000000000065e-04
4.134041000000000083e-04
4.035339999999999891e-04
3.834083000000000066e-04
3.509168000000000009e-04
3.044947999999999904e-04
2.437595000000000029e-04
1.700878000000000014e-04
8.682820000000000327e-05
-1.072300000000000093e-06
-8.796589999999999748e-05
-1.685872000000000043e-04
-2.389163999999999882e-04
-2.965867000000000178e-04
-3.408393999999999812e-04
-3.721878999999999878e-04
-3.919778000000000064e-04
-4.019769999999999767e-04
4.148638000000000174e-04
4.336478000000000056e-04
4.507280999999999918e-04
4.650373999999999871e-04
4.751730000000000125e-04
4.793140999999999786e-04
4.751601000000000045e-04
4.599637999999999752e-04
4.307777999999999738e-04
3.850373000000000142e-04
3.214704999999999776e-04
2.410647000000000028e-04
1.475712000000000009e-04
4.711199999999999888e-05
-5.307849999999999672e-05
-1.462285999999999979e-04
-2.272563000000000014e-04
-2.932925000000000180e-04
-3.435509000000000110e-04
-3.788199999999999814e-04
-4.008570000000000145e-04
-4.118600000000000039e-04
-4.140891999999999858e-04
4.297613999999999948e-04
4.538437000000000200e-04
4.775086999999999908e-04
4.999651000000000355e-04
5.201471000000000263e-04
5.366239000000000512e-04
5.474755000000000203e-04
5.501495999999999817e-04
5.413768000000000443e-04
5.173165000000000402e-04
4.741758000000000214e-04
4.094246999999999969e-04
3.233032000000000050e-04
2.198094000000000100e-04
1.063555000000000018e-04
-7.955899999999999501e-06
-1.145697999999999953e-04
-2.071736999999999982e-04
-2.823405999999999984e-04
-3.392666000000000019e-04
-3.790457000000000223e-04
-4.038736999999999818e-04
-4.163947999999999998e-04
-4.192577999999999756e-04
4.355955999999999804e-04
4.634614000000000008e-04
4.919657999999999714e-04
5.205506000000000369e-04
5.484422999999999989e-04
5.745907999999999875e-04
5.975760999999999790e-04
6.154583999999999619e-04
6.255609000000000300e-04
6.242390999999999912e-04
6.068408999999999652e-04
5.682512999999999714e-04
5.043712999999999799e-04
4.142915999999999960e-04
3.019830000000000257e-04
1.761184999999999910e-04
4.780930000000000319e-05
-7.244640000000000487e-05
-1.770030999999999926e-04
-2.618217999999999739e-04
-3.260439999999999974e-04
-3.710332000000000105e-04
-3.993870999999999966e-04
-4.141635000000000065e-04
-4.183743999999999766e-04
-4.147089999999999761e-04
4.637970999999999847e-04
4.954945999999999569e-04
5.283001999999999533e-04
5.616695000000000541e-04
5.948336000000000031e-04
6.267449000000000240e-04
6.559941999999999813e-04
6.806629000000000455e-04
6.980665999999999954e-04
7.043947000000000272e-04
6.944342000000000266e-04
6.619024999999999735e-04
6.010489999999999843e-04
5.094966000000000035e-04
3.908035999999999932e-04
2.546094000000000157e-04
1.138583000000000005e-04
-1.909390000000000027e-05
-1.352690999999999887e-04
-2.299334999999999899e-04
-3.020365000000000007e-04
-3.530631999999999911e-04
-3.858876999999999815e-04
-4.038906999999999784e-04
-4.103889000000000105e-04
-4.083286999999999789e-04
4.897702000000000088e-04
5.250642999999999934e-04
5.619142000000000147e-04
5.997778999999999958e-04
6.378685999999999731e-04
6.751046999999999604e-04
7.100436999999999591e-04
7.407612000000000051e-04
7.646110000000000016e-04
7.778104000000000094e-04
7.749640999999999821e-04
7.490860999999999700e-04
6.930896000000000192e-04
6.030776000000000279e-04
4.817531000000000005e-04
3.390544000000000110e-04
1.891030000000000087e-04
4.568190000000000049e-05
-8.100520000000000160e-05
-1.853697000000000016e-04
-2.658871000000000043e-04
-3.238839999999999775e-04
-3.622952000000000138e-04
-3.846807000000000048e-04
-3.945783000000000233e-04
-3.951474000000000176e-04
-3.890244999999999749e-04
4.766115000000000022e-04
5.128494999999999625e-04
5.513840999999999578e-04
5.918905000000000347e-04
6.338223000000000251e-04
6.763558999999999934e-04
7.183369999999999903e-04
7.582218999999999851e-04
7.939934999999999528e-04
8.229892999999999844e-04
8.415483000000000078e-04
8.444764999999999910e-04
8.247849000000000456e-04
7.748059999999999540e-04
6.894670000000000312e-04
5.702157000000000232e-04
4.262606999999999963e-04
2.717476999999999935e-04
1.211316999999999976e-04
-1.432800000000000072e-05
-1.279344000000000130e-04
-2.172815000000000033e-04
-2.831644000000000023e-04
-3.283073000000000068e-04
-3.562780999999999999e-04
-3.707367000000000041e-04
-3.750054000000000061e-04
-3.718821000000000084e-04
4.937575000000000037e-04
5.324031000000000119e-04
5.736972000000000339e-04
6.173354999999999511e-04
6.627691000000000441e-04
7.091350999999999861e-04
7.551864999999999837e-04
7.992267000000000165e-04
8.390487000000000292e-04
8.718537000000000379e-04
8.940645999999999576e-04
9.009429999999999696e-04
8.862104999999999679e-04
8.426319000000000257e-04
7.646576999999999888e-04
6.522452000000000414e-04
5.127070999999999755e-04
3.588096999999999944e-04
2.047727000000000054e-04
6.271450000000000408e-05
-5.928890000000000082e-05
-1.575370999999999998e-04
-2.319273999999999912e-04
-2.847079000000000189e-04
-3.192806000000000073e-04
-3.393218999999999944e-04
-3.482566000000000090e-04
-3.490139999999999757e-04
5.073519000000000509e-04
5.478628999999999617e-04
5.913061000000000272e-04
6.374004000000000171e-04
6.856024999999999533e-04
7.350209999999999817e-04
7.843241000000000145e-04
8.316524999999999525e-04
8.745590000000000135e-04
9.100040999999999903e-04
9.343884000000000000e-04
9.434950999999999581e-04
9.322443999999999609e-04
8.947501999999999973e-04
8.258185000000000352e-04
7.239460000000000513e-04
5.936459999999999741e-04
4.450936000000000172e-04
2.914414000000000045e-04
1.454014000000000001e-04
1.653139999999999897e-05
-8.993660000000000218e-05
-1.727569999999999995e-04
-2.334921000000000002e-04
-2.752157999999999883e-04
-3.015019000000000076e-04
-3.157975999999999730e-04
-3.211123999999999988e-04
5.170284000000000251e-04
5.587659000000000029e-04
6.036239999999999791e-04
6.513416999999999644e-04
7.013845999999999796e-04
7.528451999999999930e-04
8.043291999999999629e-04
8.538413999999999596e-04
8.987126999999999919e-04
9.356476999999999763e-04
9.609634999999999618e-04
9.709214999999999773e-04
9.617903000000000129e-04
9.295262999999999573e-04
8.699432000000000432e-04
7.804055000000000280e-04
6.623774000000000458e-04
5.228404999999999555e-04
3.732720000000000135e-04
2.265283000000000043e-04
9.339080000000000038e-05
-1.945710000000000045e-05
-1.095701000000000032e-04
-1.776919000000000122e-04
-2.264125000000000078e-04
-2.590630000000000233e-04
-2.790013000000000150e-04
-2.892379999999999843e-04
5.225492000000000418e-04
5.648034999999999601e-04
6.102453000000000304e-04
6.586211000000000019e-04
7.093972999999999512e-04
7.616517000000000382e-04
8.139446999999999524e-04
8.641878999999999663e-04
9.095643999999999951e-04
9.466188000000000380e-04
9.716571000000000452e-04
9.813930999999999263e-04
9.733141000000000058e-04
9.451486999999999519e-04
8.939431000000000503e-04
8.164641999999999950e-04
7.116788000000000411e-04
5.835652999999999674e-04
4.415924000000000108e-04
2.980872999999999878e-04
1.643915000000000133e-04
4.822230000000000076e-05
-4.691369999999999774e-05
-1.208885999999999999e-04
-1.756674999999999914e-04
-2.141814000000000023e-04
-2.395610000000000057e-04
-2.547105999999999936e-04
5.238343999999999596e-04
5.658662000000000067e-04
6.110160000000000331e-04
6.590173000000000168e-04
7.093199000000000119e-04
7.609773000000000232e-04
8.125148000000000223e-04
8.617988999999999728e-04
9.059747999999999846e-04
9.416068000000000528e-04
9.651794999999999906e-04
9.738967999999999757e-04
9.661773000000000236e-04
9.410156000000000033e-04
8.964806000000000510e-04
8.292990999999999557e-04
7.370337999999999499e-04
6.214724000000000029e-04
4.900382000000000002e-04
3.538012000000000101e-04
2.237798999999999951e-04
1.080861000000000018e-04
1.098790000000000029e-05
-6.655730000000000055e-05
-1.257952999999999914e-04
-1.691137000000000000e-04
-1.992754000000000064e-04
-2.189602999999999981e-04
5.209759000000000004e-04
5.620687000000000079e-04
6.060761000000000230e-04
6.526989999999999658e-04
7.013529000000000117e-04
7.510594000000000211e-04
8.003239000000000099e-04
8.470275999999999673e-04
8.884055000000000511e-04
9.212410999999999777e-04
9.424013999999999655e-04
9.496115000000000068e-04
9.418860999999999943e-04
9.188571999999999886e-04
8.792236000000000365e-04
8.200873000000000450e-04
7.387160000000000471e-04
6.357065999999999759e-04
5.166723999999999492e-04
3.909254999999999826e-04
2.683788999999999793e-04
1.568725999999999996e-04
6.104109999999999397e-05
-1.747829999999999832e-05
-7.920269999999999980e-05
-1.258909999999999912e-04
-1.598295000000000119e-04
-1.833694000000000133e-04
5.142327000000000139e-04
5.537438999999999686e-04
5.958553999999999804e-04
6.402225999999999577e-04
6.862198000000000126e-04
7.328430999999999834e-04
7.786095999999999729e-04
8.214859999999999610e-04
8.589175000000000108e-04
8.880582000000000146e-04
9.062729999999999744e-04
9.117667999999999997e-04
9.038545000000000043e-04
8.823353999999999616e-04
8.462263000000000467e-04
7.932154999999999545e-04
7.209974000000000504e-04
6.297663000000000219e-04
5.237193999999999921e-04
4.102900999999999835e-04
2.978381999999999905e-04
1.934217999999999918e-04
1.016448999999999998e-04
2.459360000000000116e-05
-3.761070000000000228e-05
-8.609559999999999609e-05
-1.226199999999999881e-04
-1.491390999999999897e-04
5.414067000000000488e-04
5.810197000000000235e-04
6.224521999999999694e-04
6.650449999999999591e-04
7.077910000000000408e-04
7.492625999999999844e-04
7.875809999999999799e-04
8.204847999999999612e-04
8.455669000000000509e-04
8.606916000000000046e-04
8.644411000000000065e-04
8.562342999999999820e-04
8.358149000000000264e-04
8.023713999999999933e-04
7.542141000000000470e-04
6.897341999999999666e-04
6.091532999999999670e-04
5.156562999999999642e-04
4.149867000000000226e-04
3.138681999999999844e-04
2.183110000000000042e-04
1.325781999999999905e-04
5.895049999999999742e-05
-1.971799999999999908e-06
-5.075930000000000036e-05
-8.865709999999999520e-05
-1.172027999999999953e-04
5.256956999999999819e-04
5.623860000000000057e-04
6.004337999999999906e-04
6.391650999999999496e-04
6.776004000000000185e-04
7.144106999999999801e-04
7.479194000000000207e-04
7.761930000000000001e-04
7.972534999999999995e-04
8.093940999999999896e-04
8.114650000000000378e-04
8.029003000000000485e-04
7.833485999999999965e-04
7.521335999999999777e-04
7.081169000000000439e-04
6.503576000000000495e-04
5.792482000000000490e-04
4.972779999999999779e-04
4.088275999999999954e-04
3.191487000000000230e-04
2.331589000000000014e-04
1.545992999999999955e-04
8.572990000000000059e-05
2.744870000000000030e-05
-2.037790000000000017e-05
-5.854470000000000209e-05
5.408295000000000029e-04
5.752634999999999650e-04
6.099437999999999995e-04
6.439475000000000277e-04
6.760746999999999460e-04
7.048713999999999544e-04
7.287228999999999885e-04
7.460264000000000305e-04
7.554137999999999738e-04
7.559239000000000149e-04
7.469920000000000336e-04
7.282136000000000034e-04
6.990482000000000336e-04
6.587944000000000092e-04
6.070272999999999945e-04
5.442999999999999488e-04
4.726174000000000195e-04
3.953259000000000092e-04
3.164703000000000047e-04
2.399729999999999875e-04
1.689927999999999992e-04
1.056234999999999959e-04
5.090089999999999914e-05
4.996699999999999949e-06
-3.252289999999999993e-05
5.172043000000000517e-04
5.479823000000000202e-04
5.786355999999999661e-04
6.083186999999999666e-04
6.359747000000000013e-04
6.603683000000000382e-04
6.801688999999999652e-04
6.940820999999999796e-04
7.010007000000000391e-04
7.001063000000000295e-04
6.908558000000000407e-04
6.728460999999999817e-04
6.456717000000000272e-04
6.089506000000000172e-04
5.626083000000000256e-04
5.072946000000000269e-04
4.446596999999999941e-04
3.772841999999999884e-04
3.082744000000000109e-04
2.407157999999999900e-04
1.772082000000000019e-04
1.196036999999999947e-04
6.895790000000000600e-05
2.563050000000000134e-05
5.195087999999999616e-04
5.463103000000000403e-04
5.719343999999999904e-04
5.954671999999999830e-04
6.158723999999999752e-04
6.320600999999999694e-04
6.429832999999999599e-04
6.477377000000000308e-04
6.456256000000000278e-04
6.361501999999999999e-04
6.189500999999999814e-04
5.937418000000000079e-04
5.603630999999999543e-04
5.189533999999999770e-04
4.701940000000000047e-04
4.154596999999999891e-04
3.567644000000000024e-04
2.965029999999999901e-04
2.370902999999999889e-04
1.806328999999999964e-04
1.287191999999999991e-04
8.235070000000000421e-05
5.138277999999999596e-04
5.357391999999999883e-04
5.555609999999999889e-04
5.724305999999999535e-04
5.854569999999999479e-04
5.937902999999999584e-04
5.966890999999999992e-04
5.935642999999999779e-04
5.839832000000000096e-04
5.676454000000000048e-04
5.443693999999999790e-04
5.141359999999999984e-04
4.772005000000000062e-04
4.342273000000000226e-04
3.863666999999999883e-04
3.352087999999999813e-04
2.826136000000000143e-04
2.304723000000000058e-04
1.804782999999999962e-04
1.339672999999999938e-04
5.004267000000000177e-04
5.169678999999999941e-04
5.307536000000000068e-04
5.410553000000000237e-04
5.471817000000000130e-04
5.485258999999999925e-04
5.445978000000000190e-04
5.350357999999999503e-04
5.196048999999999893e-04
4.982034999999999676e-04
4.708997999999999938e-04
4.380001000000000012e-04
4.001222000000000025e-04
3.582290000000000019e-04
3.135880999999999868e-04
2.676569999999999752e-04
2.219225000000000017e-04
1.777426999999999881e-04
4.912910000000000367e-04
4.992752000000000474e-04
5.035509000000000512e-04
5.036237000000000482e-04
4.990927000000000471e-04
4.896657999999999697e-04
4.751690999999999836e-04
4.555599000000000020e-04
4.309553000000000038e-04
4.016730000000000148e-04
3.682693000000000013e-04
3.315486999999999991e-04
2.925301000000000268e-04
2.523652999999999942e-04
4.621402999999999839e-04
4.571878999999999939e-04
4.479951999999999828e-04
4.344398000000000075e-04
4.165206999999999981e-04
3.943786000000000123e-04
3.683197999999999832e-04
3.388339000000000086e-04
3.065923999999999820e-04
5.298629999999999784e-05
1.785589999999999958e-05
-2.067060000000000162e-05
-6.153299999999999514e-05
-1.034054000000000044e-04
-1.448130999999999908e-04
-1.842803999999999916e-04
1.681258999999999889e-04
1.457527999999999981e-04
1.177543999999999987e-04
8.405800000000000056e-05
4.498899999999999904e-05
1.342600000000000071e-06
-4.561070000000000022e-05
-9.420359999999999368e-05
-1.425333999999999998e-04
-1.886738999999999962e-04
-2.308935999999999877e-04
-2.678309000000000245e-04
2.370760999999999984e-04
2.264989999999999875e-04
2.105471000000000089e-04
1.883986999999999890e-04
1.594037999999999933e-04
1.232438999999999941e-04
8.010249999999999413e-05
3.079880000000000063e-05
-2.316760000000000160e-05
-7.970220000000000408e-05
-1.363353000000000091e-04
-1.905312999999999896e-04
-2.400125000000000132e-04
-2.830158000000000153e-04
-3.184336999999999866e-04
-3.458275000000000021e-04
2.848904999999999992e-04
2.819456999999999931e-04
2.741630000000000109e-04
2.603894000000000044e-04
2.394459000000000041e-04
2.102793000000000045e-04
1.721833999999999886e-04
1.250613999999999882e-04
6.966540000000000558e-05
7.718899999999999907e-06
-5.815729999999999966e-05
-1.247424000000000070e-04
-1.886711999999999970e-04
-2.469212000000000034e-04
-2.971946999999999957e-04
-3.381125000000000124e-04
-3.692120999999999814e-04
-3.907987999999999826e-04
3.261251000000000059e-04
3.310709000000000221e-04
3.322555999999999839e-04
3.284277000000000268e-04
3.181190000000000081e-04
2.997148000000000260e-04
2.716203000000000259e-04
2.325472999999999885e-04
1.819044000000000130e-04
1.202061000000000009e-04
4.934579999999999772e-05
-2.742639999999999884e-05
-1.058970999999999995e-04
-1.815669000000000115e-04
-2.503943000000000228e-04
-3.093688000000000254e-04
-3.567779999999999780e-04
-3.921662000000000130e-04
-4.160855000000000196e-04
-4.297610000000000210e-04
3.590941999999999745e-04
3.713937999999999745e-04
3.812899000000000236e-04
3.876625999999999770e-04
3.890782999999999980e-04
3.837555000000000089e-04
3.695901000000000242e-04
3.443043000000000232e-04
3.057841999999999852e-04
2.526302000000000126e-04
1.848254000000000075e-04
1.042863000000000047e-04
1.498019999999999932e-05
-7.757629999999999788e-05
-1.673326000000000045e-04
-2.488537000000000192e-04
-3.181869000000000147e-04
-3.732200000000000079e-04
-4.135607000000000128e-04
-4.401238000000000025e-04
-4.546314999999999992e-04
-4.591687999999999803e-04
3.830826000000000175e-04
4.016476000000000269e-04
4.191746000000000100e-04
4.348032000000000047e-04
4.473723999999999995e-04
4.553297999999999786e-04
4.566336999999999848e-04
4.486948000000000260e-04
4.284471999999999998e-04
3.926843000000000174e-04
3.387730000000000038e-04
2.656984999999999837e-04
1.750955000000000111e-04
7.168429999999999399e-05
-3.733069999999999818e-05
-1.437894999999999961e-04
-2.403697999999999902e-04
-3.218946999999999998e-04
-3.857935999999999852e-04
-4.318271000000000045e-04
-4.614206000000000253e-04
-4.769366999999999834e-04
-4.810775000000000099e-04
-4.764807999999999934e-04
4.216747999999999764e-04
4.453206000000000135e-04
4.685396000000000092e-04
4.905105000000000532e-04
5.100951000000000487e-04
5.257149999999999497e-04
5.351842000000000318e-04
5.355260999999999615e-04
5.228804000000000091e-04
4.927221000000000508e-04
4.406782000000000255e-04
3.640591999999999787e-04
2.636788999999999735e-04
1.449322000000000013e-04
1.715660000000000104e-05
-1.086720999999999992e-04
-2.227347000000000072e-04
-3.183160000000000199e-04
-3.923533000000000099e-04
-4.448839000000000114e-04
-4.780081000000000152e-04
-4.948682000000000471e-04
-4.988774000000000290e-04
-4.932438000000000360e-04
4.320970999999999731e-04
4.602486999999999833e-04
4.891783000000000459e-04
5.183529000000000088e-04
5.470143999999999918e-04
5.740982999999999850e-04
5.980989000000000140e-04
6.168471000000000457e-04
6.271857999999999947e-04
6.246214999999999623e-04
6.032430000000000517e-04
5.564594999999999871e-04
4.790543999999999987e-04
3.701949999999999750e-04
2.356776999999999950e-04
8.741389999999999328e-05
-6.000940000000000180e-05
-1.936208999999999879e-04
-3.048758000000000262e-04
-3.902231999999999945e-04
-4.501066000000000181e-04
-4.874371999999999754e-04
-5.062308999999999646e-04
-5.106620000000000516e-04
-5.045278000000000046e-04
-4.910140000000000121e-04
4.651108000000000260e-04
4.979474000000000226e-04
5.321914000000000288e-04
5.673597999999999749e-04
6.027530000000000344e-04
6.373912999999999498e-04
6.698987999999999905e-04
6.982715000000000449e-04
7.194443999999999926e-04
7.286436999999999775e-04
7.188010000000000319e-04
6.808829999999999657e-04
6.063182999999999984e-04
4.915823999999999845e-04
3.423310000000000263e-04
1.733146000000000025e-04
3.397900000000000112e-06
-1.507822999999999878e-04
-2.786706000000000014e-04
-3.762419999999999935e-04
-4.443971999999999810e-04
-4.868779999999999961e-04
-5.085617999999999866e-04
-5.143587999999999719e-04
-5.086291999999999853e-04
-4.949591999999999620e-04
4.613692000000000075e-04
4.964759000000000012e-04
5.338749000000000272e-04
5.732972000000000241e-04
6.142886999999999653e-04
6.561727999999999528e-04
6.980092999999999714e-04
7.385208000000000527e-04
7.759105999999999772e-04
8.074180999999999936e-04
8.284421000000000146e-04
8.313463999999999793e-04
8.049865000000000015e-04
7.370741999999999572e-04
6.204481000000000405e-04
4.598016999999999924e-04
2.724781000000000230e-04
8.169800000000000282e-05
-9.218870000000000048e-05
-2.366068999999999996e-04
-3.469677000000000221e-04
-4.244440999999999839e-04
-4.733984000000000109e-04
-4.993953000000000194e-04
-5.079611999999999843e-04
-5.039498000000000111e-04
-4.913133000000000517e-04
-4.731038999999999817e-04
4.865682000000000080e-04
5.254215999999999704e-04
5.671241999999999733e-04
6.114392000000000394e-04
6.579189000000000478e-04
7.058610000000000101e-04
7.542767999999999608e-04
8.018593000000000292e-04
8.468886999999999813e-04
8.868978999999999708e-04
9.177793999999999969e-04
9.321374000000000109e-04
9.177912000000000093e-04
8.594101000000000474e-04
7.459511999999999740e-04
5.801714000000000133e-04
3.807926999999999905e-04
1.742647000000000054e-04
-1.608019999999999895e-05
-1.757553000000000077e-04
-2.992057999999999805e-04
-3.872926999999999858e-04
-4.444892999999999999e-04
-4.767015999999999897e-04
-4.898746000000000480e-04
-4.892593999999999459e-04
-4.791382000000000063e-04
-4.628160000000000086e-04
5.089476000000000330e-04
5.511809999999999800e-04
5.967900999999999631e-04
6.455715000000000108e-04
6.970757000000000385e-04
7.505438999999999817e-04
8.048587000000000059e-04
8.585201000000000204e-04
9.096196999999999876e-04
9.556882999999999958e-04
9.930595999999999000e-04
1.015234700000000080e-03
1.010613100000000084e-03
9.627961999999999892e-04
8.578697999999999836e-04
6.957890000000000429e-04
4.942336000000000515e-04
2.802368999999999867e-04
7.860189999999999701e-05
-9.429420000000000260e-05
-2.310749000000000125e-04
-3.313053999999999739e-04
-3.988328999999999876e-04
-4.394628999999999831e-04
-4.593318999999999788e-04
-4.639895999999999799e-04
-4.580186000000000196e-04
-4.449815000000000085e-04
-4.275319000000000189e-04
4.866059000000000161e-04
5.278979000000000267e-04
5.730111999999999662e-04
6.219787999999999749e-04
6.746408999999999869e-04
7.305607999999999460e-04
7.889324999999999550e-04
8.484910000000000455e-04
9.074458000000000524e-04
9.634532999999999596e-04
1.013607900000000010e-03
1.054236399999999981e-03
1.079873899999999947e-03
1.081009699999999985e-03
1.042945399999999903e-03
9.511195000000000066e-04
8.022329999999999609e-04
6.097468999999999676e-04
3.976722000000000243e-04
1.904680999999999865e-04
6.601999999999999640e-06
-1.436145000000000054e-04
-2.573677000000000126e-04
-3.371479000000000251e-04
-3.882444000000000194e-04
-4.167727999999999884e-04
-4.284844000000000001e-04
-4.282275999999999791e-04
-4.198211999999999777e-04
-4.061383999999999806e-04
4.996800999999999934e-04
5.428721000000000501e-04
5.902267999999999577e-04
6.418348000000000369e-04
6.975908999999999756e-04
7.570965000000000247e-04
8.195382000000000404e-04
8.835505999999999699e-04
9.470731999999999502e-04
1.007241199999999934e-03
1.060400800000000027e-03
1.102305999999999946e-03
1.128112500000000079e-03
1.131129899999999905e-03
1.100809400000000039e-03
1.024627400000000096e-03
8.962450000000000494e-04
7.221473000000000171e-04
5.200740999999999611e-04
3.126189000000000029e-04
1.204992999999999933e-04
-4.227110000000000259e-05
-1.697994999999999995e-04
-2.627293000000000055e-04
-3.255115000000000157e-04
-3.640318999999999933e-04
-3.841130000000000000e-04
-3.907949999999999879e-04
-3.881175999999999853e-04
-3.791628999999999811e-04
5.089906999999999852e-04
5.534269999999999988e-04
6.022532999999999619e-04
6.556077000000000215e-04
7.134374999999999875e-04
7.753922000000000331e-04
8.406830999999999809e-04
9.079027999999999838e-04
9.748028999999999635e-04
1.038069599999999959e-03
1.093264199999999893e-03
1.135276200000000018e-03
1.159353899999999993e-03
1.161462399999999961e-03
1.136308200000000004e-03
1.075424099999999989e-03
9.704003000000000542e-04
8.197929000000000500e-04
6.334882000000000447e-04
4.311494000000000025e-04
2.352017999999999882e-04
6.311200000000000154e-05
-7.615940000000000134e-05
-1.812313000000000075e-04
-2.554488000000000266e-04
-3.042019999999999989e-04
-3.331712000000000128e-04
-3.474374999999999816e-04
-3.511656999999999843e-04
-3.475910999999999931e-04
5.143160000000000136e-04
5.592697999999999897e-04
6.086963000000000356e-04
6.627564999999999758e-04
7.214247999999999711e-04
7.843778000000000035e-04
8.508399000000000257e-04
9.193722999999999999e-04
9.875940000000000586e-04
1.051871800000000069e-03
1.107202999999999963e-03
1.147829200000000018e-03
1.169017999999999967e-03
1.168794599999999897e-03
1.146467499999999926e-03
1.097908799999999926e-03
1.014067000000000007e-03
8.872473999999999986e-04
7.202356999999999726e-04
5.290113000000000150e-04
3.360408000000000167e-04
1.607626999999999982e-04
1.446680000000000013e-05
-9.952969999999999678e-05
-1.832170000000000044e-04
-2.411511000000000026e-04
-2.785648000000000269e-04
-3.003486999999999997e-04
-3.106316000000000025e-04
-3.126978000000000201e-04
5.155828000000000537e-04
5.602985999999999687e-04
6.094079000000000509e-04
6.630587000000000286e-04
7.212098999999999810e-04
7.835169999999999592e-04
8.491681000000000056e-04
9.166575999999999631e-04
9.834876999999999248e-04
1.045855500000000002e-03
1.098584899999999979e-03
1.135898900000000076e-03
1.153522099999999958e-03
1.150907000000000058e-03
1.130042099999999973e-03
1.089688899999999988e-03
1.021462699999999913e-03
9.149591999999999795e-04
7.684563999999999631e-04
5.939359999999999865e-04
4.116882000000000202e-04
2.409304999999999932e-04
9.404629999999999435e-05
-2.406109999999999906e-05
-1.138847999999999976e-04
-1.788292999999999990e-04
-2.233559999999999940e-04
-2.518978000000000059e-04
-2.683499999999999905e-04
-2.759072999999999799e-04
5.128786000000000195e-04
5.566237000000000355e-04
6.045246000000000430e-04
6.566789000000000393e-04
7.129859999999999800e-04
7.730299000000000371e-04
8.359135000000000393e-04
9.000368999999999817e-04
9.628262999999999535e-04
1.020503399999999998e-03
1.068164599999999907e-03
1.100677399999999912e-03
1.114665900000000017e-03
1.110374699999999932e-03
1.090442600000000048e-03
1.054676999999999958e-03
9.961466000000000418e-04
9.050579000000000002e-04
7.780852000000000428e-04
6.236021999999999703e-04
4.581507999999999978e-04
2.987845000000000258e-04
1.576345000000000101e-04
4.058370000000000244e-05
-5.146249999999999729e-05
-1.206060000000000037e-04
-1.703061999999999924e-04
-2.043140000000000093e-04
-2.261045999999999900e-04
-2.386408999999999872e-04
5.485616000000000233e-04
5.944613000000000067e-04
6.441644999999999750e-04
6.974814000000000404e-04
7.538974000000000369e-04
8.124172000000000251e-04
8.713707999999999480e-04
9.282097999999999911e-04
9.794022999999999791e-04
1.020666699999999956e-03
1.047871199999999984e-03
1.058600700000000058e-03
1.053302400000000021e-03
1.034033400000000094e-03
1.000566100000000076e-03
9.476600000000000171e-04
8.678292000000000428e-04
7.580685999999999675e-04
6.240618000000000293e-04
4.782817999999999987e-04
3.346078000000000051e-04
2.038753000000000028e-04
9.222650000000000205e-05
1.613999999999999921e-06
-6.884519999999999605e-05
-1.215464000000000057e-04
-1.594371999999999988e-04
-1.854430000000000065e-04
-2.021799999999999921e-04
5.366004999999999863e-04
5.798599000000000418e-04
6.263669000000000354e-04
6.758349999999999557e-04
7.276557999999999594e-04
7.807651999999999561e-04
8.334940999999999791e-04
8.834477000000000085e-04
9.275165000000000362e-04
9.621926000000000480e-04
9.843429999999999368e-04
9.922709000000000477e-04
9.862424999999999751e-04
9.673922999999999637e-04
9.352063000000000520e-04
8.860002999999999542e-04
8.148040999999999531e-04
7.196614999999999740e-04
6.045283000000000037e-04
4.784071999999999891e-04
3.519403999999999957e-04
2.341463000000000116e-04
1.308140999999999915e-04
4.447619999999999948e-05
-2.479600000000000112e-05
-7.843360000000000067e-05
-1.185794000000000052e-04
-1.475577000000000052e-04
5.213464999999999593e-04
5.615098000000000224e-04
6.043192999999999655e-04
6.494053000000000282e-04
6.960948999999999479e-04
7.433078999999999988e-04
7.894583000000000373e-04
8.324062000000000128e-04
8.695414999999999959e-04
8.981014999999999528e-04
9.157519000000000032e-04
9.212247000000000231e-04
9.144799999999999587e-04
8.958917000000000269e-04
8.647861000000000176e-04
8.187310999999999851e-04
7.547712999999999948e-04
6.719876999999999968e-04
5.733061999999999490e-04
4.651481999999999861e-04
3.554060000000000053e-04
2.512290000000000031e-04
1.576848000000000052e-04
7.746389999999999537e-05
1.126349999999999982e-05
-4.158190000000000248e-05
-8.250229999999999782e-05
-1.132415000000000033e-04
5.402599999999999807e-04
5.791086999999999667e-04
6.195826000000000198e-04
6.609829999999999699e-04
7.022670000000000171e-04
7.419936000000000240e-04
7.783246999999999648e-04
8.091368999999999949e-04
8.322880999999999639e-04
8.460139999999999674e-04
8.492807999999999477e-04
8.417904999999999832e-04
8.234507000000000068e-04
7.935961999999999964e-04
7.507180000000000450e-04
6.932483000000000352e-04
6.210255000000000462e-04
5.363510000000000152e-04
4.438517999999999912e-04
3.493085999999999847e-04
2.582261999999999774e-04
1.748222000000000014e-04
1.016552999999999955e-04
3.975409999999999941e-05
-1.100619999999999976e-05
-5.148260000000000070e-05
5.517716999999999674e-04
5.876488000000000241e-04
6.238854999999999748e-04
6.595159999999999651e-04
6.932747000000000388e-04
7.236242000000000368e-04
7.488635999999999904e-04
7.673299999999999869e-04
7.776522999999999812e-04
7.789391000000000110e-04
7.707432000000000172e-04
7.527531000000000283e-04
7.244111999999999600e-04
6.848477999999999857e-04
6.333693999999999739e-04
5.702774000000000298e-04
4.974569999999999773e-04
4.183117999999999884e-04
3.370836999999999792e-04
2.579524999999999939e-04
1.843183999999999936e-04
1.184556999999999982e-04
6.150819999999999497e-05
1.369270000000000021e-05
-2.542379999999999873e-05
5.232263000000000018e-04
5.546979000000000276e-04
5.860823000000000248e-04
6.165122000000000093e-04
6.449019000000000062e-04
6.699848000000000435e-04
6.904043999999999589e-04
7.048568999999999972e-04
7.122499999999999925e-04
7.118043000000000113e-04
7.030244000000000380e-04
6.855381000000000018e-04
6.589274999999999690e-04
6.227452000000000291e-04
5.768127999999999537e-04
5.216707999999999588e-04
4.588931000000000195e-04
3.910400999999999764e-04
3.212555999999999875e-04
2.527033000000000035e-04
1.880756999999999991e-04
1.293118999999999909e-04
7.753570000000000373e-05
3.315229999999999767e-05
5.216085999999999986e-04
5.485560999999999909e-04
5.743197999999999489e-04
5.979819000000000150e-04
6.185061000000000378e-04
6.348083000000000458e-04
6.458552000000000433e-04
6.507633999999999771e-04
6.488597000000000245e-04
6.396692000000000046e-04
6.228429999999999861e-04
5.980962999999999948e-04
5.652492000000000497e-04
5.244065000000000011e-04
4.762012000000000037e-04
4.219534999999999844e-04
3.636285000000000168e-04
3.035876999999999868e-04
2.442344999999999738e-04
1.876841999999999877e-04
1.355488000000000125e-04
8.886089999999999484e-05
5.120211000000000163e-04
5.336717000000000153e-04
5.532334000000000080e-04
5.698600000000000497e-04
5.826814999999999946e-04
5.908718000000000303e-04
5.937133000000000471e-04
5.906369999999999763e-04
5.812254000000000205e-04
5.651888000000000528e-04
5.423523999999999880e-04
5.126983000000000104e-04
4.764724000000000021e-04
4.343133000000000215e-04
3.873266999999999791e-04
3.370447999999999955e-04
2.852668999999999843e-04
2.338328000000000086e-04
1.844022000000000011e-04
1.382967999999999936e-04
5.110851999999999496e-04
5.244123999999999531e-04
5.343206000000000084e-04
5.401461999999999887e-04
5.413074000000000141e-04
5.373345999999999765e-04
5.278815999999999977e-04
5.127258999999999897e-04
4.917762999999999692e-04
4.651076000000000190e-04
4.330234000000000188e-04
3.961217000000000058e-04
3.553248999999999969e-04
3.118422999999999942e-04
2.670635000000000088e-04
2.224104000000000077e-04
4.898075999999999689e-04
4.937029999999999587e-04
4.935312000000000292e-04
4.889125999999999715e-04
4.795722999999999891e-04
4.653497999999999944e-04
4.462137000000000134e-04
4.222871999999999910e-04
3.938844000000000264e-04
3.615423999999999895e-04
3.260275000000000087e-04
2.883033000000000015e-04
2.494557999999999910e-04
4.451705000000000028e-04
4.360653000000000142e-04
4.227944000000000190e-04
4.053664000000000225e-04
3.839259000000000031e-04
3.587729000000000222e-04
1.083657999999999985e-04
7.879130000000000573e-05
4.401569999999999940e-05
4.485099999999999630e-06
-3.892589999999999944e-05
-8.492839999999999819e-05
-1.319078999999999911e-04
-1.780790999999999939e-04
-2.216773000000000062e-04
-2.611479000000000209e-04
1.904681999999999935e-04
1.716548000000000086e-04
1.467782000000000104e-04
1.153520999999999963e-04
7.724570000000000481e-05
3.282799999999999808e-05
-1.693359999999999996e-05
-7.046510000000000403e-05
-1.256925000000000099e-04
-1.802611999999999878e-04
-2.318206000000000010e-04
-2.783082000000000199e-04
-3.181677000000000268e-04
-3.504614999999999987e-04
2.535128000000000099e-04
2.473271999999999992e-04
2.360820999999999872e-04
2.186927999999999876e-04
1.941014999999999982e-04
1.614374999999999870e-04
1.202336000000000003e-04
7.066190000000000188e-05
1.372380000000000064e-05
-4.868519999999999933e-05
-1.138957999999999946e-04
-1.787740000000000065e-04
-2.401505999999999975e-04
-2.952567999999999816e-04
-3.420507999999999947e-04
-3.793728999999999808e-04
-4.069236999999999746e-04
-4.251168000000000156e-04
2.979370000000000174e-04
2.996766000000000100e-04
2.972849000000000173e-04
2.894953999999999930e-04
2.748585999999999911e-04
2.518396999999999802e-04
2.190127000000000046e-04
1.753622999999999998e-04
1.206573000000000010e-04
5.580090000000000305e-05
-1.698539999999999835e-05
-9.426960000000000287e-05
-1.718442000000000038e-04
-2.453838999999999868e-04
-3.111254999999999945e-04
-3.663674999999999918e-04
-4.096802999999999881e-04
-4.408374999999999750e-04
-4.605605000000000029e-04
-4.701907000000000178e-04
3.350437000000000055e-04
3.445273999999999906e-04
3.512171000000000021e-04
3.539196999999999786e-04
3.511211999999999884e-04
3.409722999999999812e-04
3.213526999999999768e-04
2.900744000000000022e-04
2.452733999999999817e-04
1.859777000000000066e-04
1.127254000000000033e-04
2.799189999999999876e-05
-6.383749999999999993e-05
-1.570692000000000106e-04
-2.457259000000000049e-04
-3.246311999999999896e-04
-3.901838999999999828e-04
-4.406384999999999859e-04
-4.759361000000000255e-04
-4.972696000000000408e-04
-5.065767999999999573e-04
-5.060989999999999803e-04
3.636183999999999879e-04
3.799747999999999928e-04
3.949908000000000130e-04
4.077301999999999879e-04
4.169217000000000235e-04
4.208600999999999857e-04
4.173172999999999965e-04
4.035228000000000187e-04
3.763153999999999783e-04
3.325908000000000141e-04
2.701107000000000226e-04
1.885513000000000119e-04
9.040549999999999357e-05
-1.880060000000000089e-05
-1.313112999999999976e-04
-2.387648999999999880e-04
-3.339619999999999850e-04
-4.120804000000000264e-04
-4.710283999999999912e-04
-5.110756000000000370e-04
-5.341187000000000061e-04
-5.429128000000000513e-04
-5.404573000000000406e-04
-5.295947000000000068e-04
4.053020999999999967e-04
4.272505999999999917e-04
4.485677999999999779e-04
4.683657999999999940e-04
4.853864999999999851e-04
4.978499999999999853e-04
5.032640000000000117e-04
4.982518999999999924e-04
4.785387999999999795e-04
4.393383999999999744e-04
3.763877000000000216e-04
2.876368000000000241e-04
1.750397000000000107e-04
4.538220000000000063e-05
-9.072080000000000053e-05
-2.214433999999999879e-04
-3.366905999999999914e-04
-4.300112999999999939e-04
-4.989865999999999703e-04
-5.444716999999999526e-04
-5.693808999999999546e-04
-5.775507000000000470e-04
-5.729193999999999953e-04
-5.590499000000000293e-04
4.207500000000000085e-04
4.479904000000000264e-04
4.759753999999999830e-04
5.041733000000000065e-04
5.318045999999999668e-04
5.577295999999999599e-04
5.802620000000000087e-04
5.968762000000000503e-04
6.038207000000000513e-04
5.957713999999999588e-04
5.658990000000000244e-04
5.069464000000000088e-04
4.137483000000000176e-04
2.866020000000000048e-04
1.334735999999999887e-04
-3.108370000000000192e-05
-1.902239999999999866e-04
-3.297660999999999800e-04
-4.411699000000000263e-04
-5.218113999999999825e-04
-5.735077999999999574e-04
-6.005732999999999645e-04
-6.082042999999999868e-04
-6.014421000000000263e-04
-5.846468999999999538e-04
-5.613230999999999993e-04
4.271740999999999798e-04
4.580804000000000061e-04
4.908008999999999853e-04
5.250714999999999549e-04
5.604650000000000083e-04
5.963398000000000396e-04
6.317516999999999707e-04
6.652799999999999729e-04
6.946831000000000100e-04
7.162931000000000419e-04
7.241707999999999479e-04
7.094299000000000091e-04
6.608372000000000161e-04
5.681311999999999994e-04
4.279846999999999818e-04
2.490540000000000180e-04
5.120500000000000187e-05
-1.415990999999999908e-04
-3.096344000000000114e-04
-4.418725999999999882e-04
-5.357667999999999675e-04
-5.945616999999999829e-04
-6.243473999999999509e-04
-6.319041000000000068e-04
-6.234774000000000219e-04
-6.042537999999999642e-04
-5.782588999999999872e-04
4.588470999999999999e-04
4.945317000000000072e-04
5.327649000000000057e-04
5.733604000000000001e-04
6.159752000000000109e-04
6.600809999999999707e-04
7.049257000000000396e-04
7.494342999999999881e-04
7.919240999999999824e-04
8.294021999999999853e-04
8.561884000000000508e-04
8.620258999999999691e-04
8.312261999999999732e-04
7.461643000000000008e-04
5.969607000000000255e-04
3.918026999999999816e-04
1.573462999999999880e-04
-7.294939999999999649e-05
-2.724334999999999929e-04
-4.274513000000000184e-04
-5.359337999999999949e-04
-6.029324999999999875e-04
-6.365098000000000023e-04
-6.450842000000000468e-04
-6.360915000000000406e-04
-6.155104000000000217e-04
-5.878561000000000246e-04
-5.563827000000000356e-04
4.518354999999999941e-04
4.889124000000000117e-04
5.292552000000000281e-04
5.728756000000000213e-04
6.196459000000000298e-04
6.692634000000000473e-04
7.212337999999999995e-04
7.748812000000000104e-04
8.293639999999999693e-04
8.835768000000000138e-04
9.356033000000000144e-04
9.810805000000000133e-04
1.009927099999999908e-03
1.002840199999999920e-03
9.333746999999999660e-04
7.818493999999999618e-04
5.540229000000000247e-04
2.841537000000000099e-04
1.677940000000000066e-05
-2.140002999999999914e-04
-3.921460999999999892e-04
-5.162440000000000128e-04
-5.930376999999999480e-04
-6.323121000000000340e-04
-6.438935000000000448e-04
-6.362517999999999516e-04
-6.160717999999999923e-04
-5.883217999999999955e-04
-5.565296999999999649e-04
4.758028999999999774e-04
5.166384999999999901e-04
5.613820999999999525e-04
6.101162000000000252e-04
6.627588000000000012e-04
7.190077999999999704e-04
7.783077999999999481e-04
8.398703999999999675e-04
9.027733999999999715e-04
9.660903999999999889e-04
1.028751399999999977e-03
1.088238000000000053e-03
1.136542200000000002e-03
1.153477900000000065e-03
7.199075999999999783e-04
4.243687000000000219e-04
1.278541000000000063e-04
-1.293966999999999871e-04
-3.292195999999999946e-04
-4.700366999999999783e-04
-5.591500000000000116e-04
-6.071737000000000445e-04
-6.248109999999999645e-04
-6.213116000000000298e-04
-6.039733000000000471e-04
-5.782072000000000296e-04
-5.478421000000000245e-04
-5.154838000000000128e-04
4.970722999999999808e-04
5.412953000000000079e-04
5.900370999999999958e-04
6.434595999999999675e-04
7.015348999999999500e-04
7.639591999999999954e-04
8.300738000000000213e-04
8.988356000000000514e-04
9.688938000000000238e-04
1.038820599999999966e-03
1.107396799999999914e-03
1.173210199999999903e-03
1.231302400000000010e-03
5.721182000000000004e-04
2.623762999999999768e-04
-1.273219999999999983e-05
-2.321935999999999922e-04
-3.917406999999999812e-04
-4.969616999999999958e-04
-5.579238999999999726e-04
-5.855568999999999705e-04
-5.896502000000000080e-04
-5.780704000000000007e-04
-5.567080000000000509e-04
-5.297569999999999493e-04
-5.000881999999999463e-04
5.150735999999999943e-04
5.621763999999999798e-04
6.143525999999999631e-04
6.718581000000000379e-04
7.347493000000000296e-04
8.027676000000000082e-04
8.752077000000000467e-04
9.507975999999999581e-04
1.027642199999999903e-03
1.103318399999999970e-03
1.175258399999999908e-03
1.241291100000000086e-03
1.298493200000000024e-03
4.242396000000000166e-04
1.396710000000000117e-04
-9.867250000000000099e-05
-2.801038000000000269e-04
-4.059172000000000106e-04
-4.843631000000000043e-04
-5.260996999999999462e-04
-5.413148000000000439e-04
-5.384476000000000453e-04
-5.239255000000000171e-04
-5.023812999999999803e-04
-4.770241000000000260e-04
5.292992999999999960e-04
5.786354000000000063e-04
6.335038999999999774e-04
6.942632999999999704e-04
7.610851999999999548e-04
8.338236000000000172e-04
9.118477999999999740e-04
9.938408000000000138e-04
1.077571000000000041e-03
1.159673300000000056e-03
1.235662200000000070e-03
1.300773799999999916e-03
3.204937000000000042e-04
6.351940000000000038e-05
-1.419629999999999959e-04
-2.913810000000000076e-04
-3.904792999999999936e-04
-4.493410999999999998e-04
-4.784114999999999917e-04
-4.866453000000000076e-04
-4.810004999999999901e-04
-4.665717999999999905e-04
-4.469442000000000228e-04
5.393432000000000304e-04
5.901377000000000402e-04
6.467781000000000138e-04
7.097127999999999857e-04
7.792295000000000514e-04
8.553248999999999531e-04
9.375248999999999996e-04
1.024633700000000076e-03
1.114364500000000020e-03
1.202780700000000104e-03
1.283690000000000091e-03
5.038834000000000281e-04
2.330545999999999963e-04
6.640500000000000203e-06
-1.648677999999999938e-04
-2.843910999999999748e-04
-3.609980000000000155e-04
-4.049961000000000034e-04
-4.255741999999999750e-04
-4.300495999999999898e-04
-4.238886999999999993e-04
-4.110135999999999911e-04
5.449410999999999925e-04
5.963235000000000107e-04
6.536718999999999646e-04
7.174835000000000500e-04
7.881157999999999870e-04
8.656611999999999510e-04
9.497597000000000201e-04
1.039314300000000052e-03
1.132018399999999963e-03
1.223549499999999944e-03
1.306505799999999962e-03
6.531897000000000050e-04
3.815336000000000226e-04
1.449884000000000025e-04
-4.112660000000000024e-05
-1.765430000000000070e-04
-2.684960000000000124e-04
-3.263909999999999858e-04
-3.590876000000000007e-04
-3.738923000000000116e-04
-3.764171000000000183e-04
-3.707911000000000150e-04
5.460048999999999805e-04
5.970637999999999466e-04
6.539872000000000393e-04
7.172583000000000170e-04
7.872225000000000273e-04
8.639569000000000155e-04
9.470690999999999615e-04
1.035374300000000032e-03
1.126355199999999959e-03
1.215281199999999982e-03
1.294150900000000078e-03
1.351883599999999892e-03
9.865676000000000306e-04
7.428445000000000534e-04
4.874885000000000134e-04
2.560665999999999854e-04
6.676359999999999890e-05
-7.682359999999999406e-05
-1.792476999999999948e-04
-2.481343000000000003e-04
-2.913243000000000256e-04
-3.156309999999999736e-04
-3.264944999999999892e-04
-3.280488000000000024e-04
5.426391999999999934e-04
5.924907000000000090e-04
6.478866999999999916e-04
7.092316999999999675e-04
7.767714000000000216e-04
8.504517999999999540e-04
9.296992000000000450e-04
1.013072600000000049e-03
1.097725900000000006e-03
1.178659699999999892e-03
1.248100399999999954e-03
1.296343199999999999e-03
1.316302699999999902e-03
1.310899699999999940e-03
1.293408499999999968e-03
1.271464799999999984e-03
1.229640499999999897e-03
1.137763400000000105e-03
9.802412000000000365e-04
7.718224000000000525e-04
5.455844000000000275e-04
3.325394999999999762e-04
1.512166999999999917e-04
7.882300000000000748e-06
-9.907490000000000242e-05
-1.749533999999999909e-04
-2.260355000000000079e-04
-2.582053000000000061e-04
-2.764110000000000070e-04
-2.845685000000000250e-04
5.351337999999999755e-04
5.829890000000000115e-04
6.358858000000000435e-04
6.941013999999999474e-04
7.577222999999999467e-04
8.264958999999999891e-04
8.996052000000000042e-04
9.753380999999999986e-04
1.050639699999999935e-03
1.120642000000000036e-03
1.178587100000000071e-03
1.217124900000000074e-03
1.231961800000000006e-03
1.226199500000000036e-03
1.209043900000000013e-03
1.184869899999999943e-03
1.142677500000000099e-03
1.061689700000000014e-03
9.301103999999999709e-04
7.565077000000000346e-04
5.638937000000000116e-04
3.764349000000000167e-04
2.107955999999999914e-04
7.457709999999999448e-05
-3.139910000000000232e-05
-1.101174000000000038e-04
-1.660967000000000118e-04
-2.040353000000000013e-04
-2.281533000000000031e-04
-2.419586000000000046e-04
5.691507999999999854e-04
6.187809999999999968e-04
6.729528999999999719e-04
7.315763999999999774e-04
7.941985999999999620e-04
8.597980000000000509e-04
9.265128999999999769e-04
9.913406000000000474e-04
1.049953200000000022e-03
1.096987999999999913e-03
1.127355100000000058e-03
1.138678599999999944e-03
1.133284499999999981e-03
1.116388999999999966e-03
1.089555999999999988e-03
1.045411399999999916e-03
9.712742000000000120e-04
8.597970999999999609e-04
7.160660000000000115e-04
5.552187999999999568e-04
3.947582000000000044e-04
2.483248999999999982e-04
1.235250999999999873e-04
2.269480000000000165e-05
-5.528680000000000064e-05
-1.133037000000000042e-04
-1.548273000000000075e-04
-1.832412999999999967e-04
-2.015247000000000121e-04
5.517042000000000430e-04
5.975404999999999823e-04
6.470850000000000430e-04
7.000908999999999821e-04
7.559519999999999478e-04
8.135363000000000056e-04
8.709958000000000066e-04
9.256089999999999804e-04
9.737949000000000301e-04
1.011532899999999973e-03
1.035392300000000099e-03
1.043948700000000077e-03
1.038476100000000017e-03
1.021411899999999937e-03
9.927948000000000241e-04
9.479278000000000487e-04
8.796467000000000088e-04
7.840278999999999478e-04
6.644545000000000399e-04
5.308081000000000518e-04
3.953036999999999740e-04
2.684321999999999945e-04
1.569550999999999976e-04
6.384889999999999782e-05
-1.075259999999999934e-05
-6.842720000000000107e-05
-1.115465999999999935e-04
-1.426703000000000086e-04
5.314369000000000211e-04
5.731889999999999902e-04
6.178361000000000052e-04
6.650150000000000288e-04
7.140322999999999636e-04
7.637444000000000394e-04
8.124432000000000008e-04
8.578038999999999543e-04
8.969935999999999968e-04
9.270612000000000340e-04
9.456351999999999683e-04
9.516654000000000042e-04
9.455655999999999783e-04
9.281753999999999699e-04
8.989497000000000373e-04
8.550323000000000298e-04
7.926332000000000126e-04
7.100270000000000106e-04
6.097701999999999983e-04
4.984645999999999912e-04
3.845527999999999750e-04
2.758231999999999785e-04
1.778647000000000116e-04
9.369210000000000374e-05
2.414469999999999941e-05
-3.142849999999999903e-05
-7.451410000000000542e-05
-1.069425999999999949e-04
5.467119000000000536e-04
5.864505000000000325e-04
6.279095000000000162e-04
6.703696999999999998e-04
7.127489000000000090e-04
7.535449999999999961e-04
7.908438000000000056e-04
8.224495000000000069e-04
8.461847999999999896e-04
8.603226999999999750e-04
8.639525999999999586e-04
8.569495000000000324e-04
8.393625999999999518e-04
8.105474999999999573e-04
7.688534000000000340e-04
7.124434000000000235e-04
6.408594000000000530e-04
5.561933999999999932e-04
4.630195000000000144e-04
3.672174999999999853e-04
2.744828999999999737e-04
1.892424000000000027e-04
1.142293999999999943e-04
5.059199999999999944e-05
-1.729100000000000098e-06
-4.356630000000000333e-05
5.540003000000000158e-04
5.900597000000000047e-04
6.264695000000000029e-04
6.622499000000000441e-04
6.961212999999999516e-04
7.265369999999999728e-04
7.518003999999999789e-04
7.702743000000000393e-04
7.806364999999999789e-04
7.820573999999999842e-04
7.741471000000000203e-04
7.566308000000000538e-04
7.289596999999999657e-04
6.902447999999999613e-04
6.397380000000000471e-04
5.776473000000000284e-04
5.057376000000000146e-04
4.272969999999999850e-04
3.464908000000000267e-04
2.674775000000000221e-04
1.936851000000000067e-04
1.274462000000000132e-04
6.997189999999999324e-05
2.154200000000000144e-05
5.524577999999999607e-04
5.834288999999999665e-04
6.134060000000000424e-04
6.413182999999999818e-04
6.659247000000000517e-04
6.859063000000000096e-04
7.000050999999999973e-04
7.071744000000000033e-04
7.066702999999999483e-04
6.980184999999999645e-04
6.808594999999999751e-04
6.547925999999999486e-04
6.193950000000000150e-04
5.745025000000000175e-04
5.206313000000000173e-04
4.592760999999999784e-04
3.928754000000000230e-04
3.244414999999999734e-04
2.570315000000000208e-04
1.932761999999999978e-04
1.350993999999999893e-04
8.364509999999999643e-05
3.935960000000000175e-05
5.419993000000000337e-04
5.669518999999999817e-04
5.897972999999999714e-04
6.095397000000000011e-04
6.251438000000000437e-04
6.356258999999999954e-04
6.401452000000000184e-04
6.380567999999999657e-04
6.289018000000000169e-04
6.123451999999999932e-04
5.881257000000000195e-04
5.560971000000000056e-04
5.163903999999999543e-04
4.696303000000000088e-04
4.170743999999999992e-04
3.605753000000000170e-04
3.023570999999999854e-04
2.446932999999999769e-04
1.896020000000000051e-04
1.386415999999999907e-04
9.283159999999999394e-05
5.233094999999999674e-04
5.418839000000000381e-04
5.575807000000000332e-04
5.695799000000000521e-04
5.771039000000000160e-04
5.794754000000000051e-04
5.761540999999999798e-04
5.667425000000000240e-04
5.509691999999999628e-04
5.286843999999999962e-04
4.998993999999999660e-04
4.648795000000000271e-04
4.242526000000000044e-04
3.790684999999999910e-04
3.307598000000000244e-04
2.810003999999999735e-04
2.315042000000000120e-04
1.838265000000000060e-04
4.976768000000000121e-04
5.100296999999999730e-04
5.190829000000000103e-04
5.242183000000000086e-04
5.248925999999999896e-04
5.206664999999999861e-04
5.112171000000000423e-04
4.963431999999999610e-04
4.759760000000000249e-04
4.502113999999999769e-04
4.193614999999999930e-04
3.840075999999999993e-04
3.450198000000000132e-04
3.035207999999999960e-04
2.607918000000000193e-04
2.181424000000000004e-04
4.733963999999999794e-04
4.766292000000000206e-04
4.759971999999999901e-04
4.711510000000000025e-04
4.618402999999999766e-04
4.479258999999999867e-04
4.293945999999999766e-04
4.063822999999999936e-04
3.792027999999999805e-04
3.483714000000000168e-04
3.146057999999999754e-04
2.787948000000000162e-04
-3.289049999999999960e-05
-7.496530000000000543e-05
-1.189172999999999939e-04
-1.632495000000000029e-04
-2.063532000000000083e-04
1.523204000000000062e-04
1.310616000000000125e-04
1.040850999999999972e-04
7.109129999999999475e-05
3.213720000000000124e-05
-1.225299999999999941e-05
-6.102610000000000174e-05
-1.126208000000000043e-04
-1.650842999999999874e-04
-2.162742000000000104e-04
-2.641047999999999790e-04
-3.067826000000000060e-04
-3.429819999999999766e-04
2.181779999999999972e-04
2.086400000000000082e-04
1.939633000000000069e-04
1.731968000000000017e-04
1.454721000000000128e-04
1.101608000000000041e-04
6.706650000000000578e-05
1.661690000000000009e-05
-4.000500000000000068e-05
-1.008503999999999992e-04
-1.633534000000000071e-04
-2.246253999999999992e-04
-2.818313000000000133e-04
-3.325533999999999999e-04
-3.750537999999999767e-04
-4.083905999999999994e-04
-4.323881999999999812e-04
2.644327000000000136e-04
2.624697000000000054e-04
2.560562000000000168e-04
2.439776000000000000e-04
2.248967000000000045e-04
1.974723999999999967e-04
1.605668999999999890e-04
1.135333000000000062e-04
5.653769999999999911e-05
-9.178400000000000078e-06
-8.121190000000000082e-05
-1.561718999999999879e-04
-2.301125999999999964e-04
-2.991213999999999852e-04
-3.598903000000000193e-04
-4.101191999999999815e-04
-4.486690000000000101e-04
-4.754817999999999848e-04
-4.913460999999999610e-04
3.047125999999999936e-04
3.105593999999999933e-04
3.131582000000000267e-04
3.112785000000000183e-04
3.033951999999999916e-04
2.877059000000000062e-04
2.622387999999999803e-04
2.251001000000000033e-04
1.748839000000000079e-04
1.111965999999999985e-04
3.515670000000000172e-05
-5.034580000000000169e-05
-1.408168999999999968e-04
-2.307962000000000045e-04
-3.147924999999999985e-04
-3.882097000000000043e-04
-4.479738999999999835e-04
-4.927307999999999818e-04
-5.226621000000000522e-04
-5.390781000000000522e-04
-5.439517000000000050e-04
3.373426999999999914e-04
3.504638000000000241e-04
3.617887000000000078e-04
3.702978000000000107e-04
3.746185000000000183e-04
3.729382000000000270e-04
3.629498999999999790e-04
3.418987000000000068e-04
3.068286000000000255e-04
2.551173000000000112e-04
1.852950999999999871e-04
9.796040000000000487e-05
-3.585400000000000011e-06
-1.133986999999999956e-04
-2.238207000000000033e-04
-3.270058000000000058e-04
-4.164616999999999907e-04
-4.880465000000000172e-04
-5.402019000000000092e-04
-5.735602000000000452e-04
-5.902387000000000042e-04
-5.931129000000000045e-04
-5.852372999999999473e-04
3.615406000000000262e-04
3.808543000000000171e-04
3.997995000000000064e-04
4.176792000000000243e-04
4.334984999999999967e-04
4.458412000000000030e-04
4.527070999999999808e-04
4.513383999999999951e-04
4.381189999999999976e-04
4.087137000000000235e-04
3.586624999999999969e-04
2.845662999999999795e-04
1.856998000000000004e-04
6.542909999999999330e-05
-6.846310000000000525e-05
-2.050885000000000067e-04
-3.330170999999999934e-04
-4.429227000000000207e-04
-5.291954000000000189e-04
-5.901573000000000018e-04
-6.272482000000000231e-04
-6.438137999999999717e-04
-6.439888000000000166e-04
-6.319008999999999997e-04
-6.112166000000000257e-04
4.014655000000000003e-04
4.264860999999999891e-04
4.519845000000000091e-04
4.773792999999999917e-04
5.017987999999999702e-04
5.239319000000000311e-04
5.417920999999999588e-04
5.523874000000000232e-04
5.513592000000000319e-04
5.328080999999999920e-04
4.897150999999999761e-04
4.154381999999999758e-04
3.063936999999999867e-04
1.650528000000000065e-04
1.367500000000000036e-06
-1.689651999999999929e-04
-3.289440000000000137e-04
-4.649628000000000268e-04
-5.694384999999999725e-04
-6.408212000000000370e-04
-6.819448999999999563e-04
-6.979774999999999695e-04
-6.947580999999999982e-04
-6.777569999999999689e-04
-6.515816000000000229e-04
-6.198441999999999971e-04
4.128123000000000252e-04
4.422577999999999926e-04
4.734046000000000109e-04
5.059997000000000539e-04
5.396236999999999475e-04
5.736164000000000193e-04
6.069387000000000306e-04
6.379083999999999926e-04
6.637300999999999965e-04
6.797848999999999905e-04
6.788401000000000331e-04
6.507668999999999780e-04
5.838837000000000150e-04
4.689971000000000027e-04
3.054463000000000100e-04
1.053597999999999937e-04
-1.082998999999999963e-04
-3.097220000000000138e-04
-4.788540000000000201e-04
-6.056167000000000321e-04
-6.891647999999999784e-04
-7.346348000000000157e-04
-7.497886000000000264e-04
-7.426616999999999507e-04
-7.203169000000000152e-04
-6.883917000000000248e-04
-6.510990000000000354e-04
4.481868999999999762e-04
4.831037999999999739e-04
5.206180999999999613e-04
5.606097999999999464e-04
6.028280999999999484e-04
6.468561000000000493e-04
6.920379999999999631e-04
7.372847999999999988e-04
7.805935999999999864e-04
8.180435999999999480e-04
8.421248000000000318e-04
8.398521000000000155e-04
7.925913000000000359e-04
6.810594999999999800e-04
4.968146999999999581e-04
2.532915000000000058e-04
-1.544110000000000027e-05
-2.696007000000000156e-04
-4.797204000000000225e-04
-6.329877000000000246e-04
-7.303961000000000524e-04
-7.806300999999999648e-04
-7.948907000000000498e-04
-7.838396999999999552e-04
-7.562867999999999501e-04
-7.189142999999999619e-04
-6.764940999999999576e-04
-6.322705999999999769e-04
4.456789999999999862e-04
4.826833000000000208e-04
5.231072999999999713e-04
5.670421999999999832e-04
6.144772999999999858e-04
6.652834000000000482e-04
7.192211999999999911e-04
7.759731000000000397e-04
8.351422000000000489e-04
8.960160000000000216e-04
9.566244000000000223e-04
1.011310000000000073e-03
1.046280199999999978e-03
1.035179399999999923e-03
9.425479000000000496e-04
7.437203000000000086e-04
4.507663000000000078e-04
1.146036000000000016e-04
-2.035538999999999892e-04
-4.616140000000000022e-04
-6.446921000000000205e-04
-7.573751000000000528e-04
