2.495077999999999966e-04
2.236193000000000089e-04
1.914014999999999868e-04
1.539575000000000112e-04
1.130001000000000025e-04
2.982222000000000193e-04
2.800947999999999936e-04
2.546380000000000106e-04
2.221880000000000079e-04
1.838143999999999998e-04
1.412746000000000043e-04
9.679439999999999605e-05
3.252150000000000093e-04
3.083331000000000244e-04
2.837056000000000235e-04
2.515699000000000255e-04
2.129266999999999954e-04
1.695168000000000098e-04
1.236149000000000080e-04
3.563870999999999814e-04
3.483924000000000222e-04
3.328976999999999891e-04
3.094238000000000240e-04
2.781150999999999827e-04
2.398767000000000000e-04
1.963737999999999866e-04
1.498515000000000068e-04
1.028085999999999968e-04
3.732979000000000093e-04
3.667230000000000056e-04
3.526493999999999918e-04
3.305531999999999915e-04
3.005018999999999833e-04
2.632908000000000102e-04
2.204611999999999891e-04
1.741566000000000056e-04
1.268285000000000072e-04
3.848378999999999971e-04
3.794744999999999867e-04
3.667580000000000146e-04
3.461552000000000227e-04
3.176779000000000235e-04
2.820100999999999988e-04
2.405405000000000054e-04
1.952545999999999991e-04
1.484854999999999931e-04
3.907070000000000118e-04
3.862920999999999738e-04
3.747954999999999863e-04
3.557033999999999934e-04
3.289944000000000158e-04
2.952510999999999894e-04
2.556990000000000196e-04
2.121322999999999883e-04
1.667104000000000090e-04
3.909772999999999742e-04
3.872319000000000152e-04
3.767767000000000208e-04
3.591390999999999984e-04
3.342840999999999933e-04
3.027083999999999765e-04
2.654802000000000268e-04
2.241893999999999918e-04
1.807868000000000018e-04
3.827328999999999757e-04
3.731327999999999793e-04
3.568504999999999811e-04
3.338527000000000096e-04
3.045669999999999996e-04
2.699188999999999950e-04
2.117623999999999971e-04
1.814201999999999948e-04
1.446262999999999878e-04
1.028161000000000065e-04
5.809829999999999904e-05
2.881267999999999872e-04
2.733899999999999829e-04
2.507456000000000138e-04
2.199183000000000116e-04
1.814479999999999880e-04
1.368220999999999923e-04
8.837699999999999766e-05
3.895059999999999939e-05
-8.606900000000000553e-06
3.247859999999999766e-04
3.119293999999999886e-04
2.904041999999999800e-04
2.597043000000000268e-04
2.202175999999999971e-04
1.734227000000000023e-04
1.218195999999999949e-04
6.855340000000000674e-05
1.684839999999999949e-05
3.623540000000000072e-04
3.596156999999999999e-04
3.489082999999999811e-04
3.289394000000000172e-04
2.989835000000000149e-04
2.592515999999999896e-04
2.111473000000000104e-04
1.572396000000000048e-04
1.008844999999999995e-04
4.560900000000000327e-05
-5.510500000000000011e-06
3.849925000000000244e-04
3.912639999999999998e-04
3.909922999999999936e-04
3.825227000000000163e-04
3.644070000000000230e-04
3.357440000000000164e-04
2.965693999999999731e-04
2.481525000000000267e-04
1.930182000000000013e-04
1.345996999999999981e-04
7.661399999999999526e-05
2.239430000000000004e-05
-2.559249999999999934e-05
4.069610000000000089e-04
4.154588000000000074e-04
4.174040999999999971e-04
4.110736999999999941e-04
3.949380000000000056e-04
3.679868999999999783e-04
3.301083999999999919e-04
2.823972999999999805e-04
2.272239999999999915e-04
1.679502000000000035e-04
1.083434999999999970e-04
5.189929999999999961e-05
1.308300000000000035e-06
4.236069999999999983e-04
4.338435999999999877e-04
4.375987999999999818e-04
4.331447000000000205e-04
4.189460999999999901e-04
3.939580000000000252e-04
3.579653000000000132e-04
3.118743999999999900e-04
2.578179000000000104e-04
1.989518000000000016e-04
1.389499000000000094e-04
8.135430000000000135e-05
2.901150000000000167e-05
4.342772000000000169e-04
4.456629000000000254e-04
4.507123000000000249e-04
4.477508000000000161e-04
4.353033999999999766e-04
4.123557999999999933e-04
3.786390999999999845e-04
3.348833000000000061e-04
2.829412000000000008e-04
2.256691999999999975e-04
1.665217000000000086e-04
1.089626000000000060e-04
5.589980000000000307e-05
4.386885000000000198e-04
4.505921000000000188e-04
4.563724999999999813e-04
4.544563999999999744e-04
4.434786999999999930e-04
4.225031999999999768e-04
3.912502999999999901e-04
3.503037000000000186e-04
3.012374999999999970e-04
2.465634999999999984e-04
1.894258000000000118e-04
1.330939999999999966e-04
8.042830000000000378e-05
4.369670999999999994e-04
4.487836999999999838e-04
4.547509999999999834e-04
4.534332000000000076e-04
4.436059000000000009e-04
4.244389999999999795e-04
3.956734000000000054e-04
3.577839999999999883e-04
3.120967000000000099e-04
2.607767000000000201e-04
2.066078999999999908e-04
1.525749000000000018e-04
1.013855999999999937e-04
4.296268000000000114e-04
4.408390999999999785e-04
4.465280000000000182e-04
4.454171000000000150e-04
4.364373999999999966e-04
4.188764000000000202e-04
3.925148000000000048e-04
3.577531000000000222e-04
3.157106999999999926e-04
2.682324999999999835e-04
2.177291999999999888e-04
1.668457999999999942e-04
4.277015000000000114e-04
4.327636999999999847e-04
4.315604000000000228e-04
4.231799000000000172e-04
4.070271999999999779e-04
3.829319999999999989e-04
3.512465999999999787e-04
3.129235000000000068e-04
2.695245999999999775e-04
2.231032000000000089e-04
1.759460000000000125e-04
4.132262999999999843e-04
4.052665999999999799e-04
3.903544000000000111e-04
3.683703000000000194e-04
3.396340000000000079e-04
3.049626000000000268e-04
2.656741000000000115e-04
1.214981000000000015e-04
8.270600000000000401e-05
3.994740000000000313e-05
2.230436999999999936e-04
1.959186999999999984e-04
1.608036000000000133e-04
1.185449999999999975e-04
7.097239999999999831e-05
2.072930000000000158e-05
-2.914680000000000019e-05
2.956651999999999826e-04
2.862478999999999805e-04
2.686680999999999900e-04
2.418541000000000126e-04
2.054370999999999986e-04
1.601248999999999956e-04
1.078932999999999992e-04
5.182920000000000176e-05
-4.394799999999999834e-06
-5.722880000000000339e-05
-1.038649999999999957e-04
3.383791999999999941e-04
3.320881000000000028e-04
3.168458000000000082e-04
2.911538999999999772e-04
2.542410999999999738e-04
2.065768000000000107e-04
1.501983000000000083e-04
8.859560000000000265e-05
2.608709999999999965e-05
-3.308030000000000242e-05
-8.552870000000000665e-05
-1.291766999999999926e-04
3.758895000000000270e-04
3.806160999999999963e-04
3.778725000000000248e-04
3.655581999999999994e-04
3.417571000000000215e-04
3.052619999999999921e-04
2.562209000000000188e-04
1.966198999999999909e-04
1.302448000000000104e-04
6.198769999999999606e-05
-3.232099999999999937e-06
-6.145060000000000420e-05
-1.101943000000000031e-04
3.978925000000000127e-04
4.119188999999999772e-04
4.204834999999999866e-04
4.214223000000000123e-04
4.123673000000000117e-04
3.910543999999999739e-04
3.558777000000000164e-04
3.066289000000000146e-04
2.451212000000000139e-04
1.752575999999999939e-04
1.023292999999999962e-04
3.181260000000000099e-05
-3.177570000000000139e-05
-8.553419999999999838e-05
-1.282584999999999986e-04
4.264439999999999984e-04
4.439391999999999796e-04
4.560567999999999870e-04
4.604968000000000190e-04
4.547153999999999866e-04
4.362217999999999847e-04
4.031226999999999749e-04
3.548862999999999974e-04
2.930502000000000085e-04
2.214076000000000043e-04
1.453817000000000043e-04
7.080029999999999364e-05
2.642900000000000141e-06
-5.574549999999999677e-05
-1.028271999999999970e-04
4.263795000000000128e-04
4.500441000000000098e-04
4.704377000000000038e-04
4.855595999999999784e-04
4.930318999999999847e-04
4.902347000000000041e-04
4.745956999999999867e-04
4.440927000000000112e-04
3.979640999999999799e-04
3.374146999999999867e-04
2.659037000000000271e-04
1.886795999999999883e-04
1.116554999999999951e-04
4.012650000000000282e-05
-2.214389999999999986e-05
-7.322739999999999620e-05
-1.128168000000000004e-04
4.419760999999999915e-04
4.676258999999999776e-04
4.901489000000000193e-04
5.075136000000000057e-04
5.173251000000000455e-04
5.169826000000000196e-04
5.039683999999999570e-04
4.762926000000000009e-04
4.330855999999999790e-04
3.752205000000000102e-04
3.056639999999999791e-04
2.292202999999999981e-04
1.516126999999999926e-04
7.825489999999999508e-05
1.324100000000000079e-05
-4.110800000000000012e-05
-8.413940000000000286e-05
4.516744000000000271e-04
4.784400999999999867e-04
5.021824999999999510e-04
5.208837000000000016e-04
5.321956000000000516e-04
5.336215000000000272e-04
5.228058000000000488e-04
4.979122999999999796e-04
4.580758000000000095e-04
4.038905000000000186e-04
3.377772000000000023e-04
2.639291000000000206e-04
1.876458999999999918e-04
1.142340000000000044e-04
4.795889999999999919e-05
-8.534800000000000006e-06
-5.424280000000000182e-05
4.552019999999999829e-04
4.821598000000000181e-04
5.061545999999999667e-04
5.252316000000000146e-04
5.371539000000000478e-04
5.396011999999999727e-04
5.304500000000000187e-04
5.080856000000000131e-04
4.717228999999999758e-04
4.217593000000000058e-04
3.601171999999999815e-04
2.903342000000000162e-04
2.171290999999999944e-04
1.454802999999999901e-04
7.961979999999999958e-05
2.238250000000000127e-05
-2.492580000000000113e-05
4.789449000000000093e-04
5.022734999999999743e-04
5.208221999999999548e-04
5.325240000000000399e-04
5.352885999999999625e-04
5.272594000000000022e-04
5.070635000000000420e-04
4.740330000000000064e-04
4.284523999999999841e-04
3.718506999999999802e-04
3.071581999999999893e-04
2.384437999999999955e-04
1.701856000000000126e-04
1.063782999999999976e-04
4.988290000000000313e-05
4.694241000000000039e-04
4.913177000000000343e-04
5.085957000000000542e-04
5.194042999999999967e-04
5.219136999999999561e-04
5.145403999999999907e-04
4.961440000000000121e-04
4.661841999999999809e-04
4.248974000000000088e-04
3.735308999999999917e-04
3.145000999999999808e-04
2.512300999999999987e-04
1.876031000000000064e-04
1.272222000000000099e-04
7.282019999999999780e-05
4.744923999999999973e-04
4.899827000000000479e-04
4.994393999999999873e-04
5.012999999999999878e-04
4.942409999999999729e-04
4.773325000000000246e-04
4.501571999999999800e-04
4.129436000000000218e-04
3.667426000000000214e-04
3.135503999999999787e-04
2.562037999999999881e-04
1.979717999999999940e-04
1.419834000000000135e-04
4.532173000000000018e-04
4.666366000000000242e-04
4.744985999999999974e-04
4.754962999999999963e-04
4.685421999999999742e-04
4.528914999999999785e-04
4.282390000000000176e-04
3.948223999999999961e-04
3.535489000000000058e-04
3.060755999999999872e-04
2.547278999999999841e-04
2.022023000000000071e-04
1.511379999999999885e-04
4.463909999999999753e-04
4.464596999999999836e-04
4.395129000000000115e-04
4.249661999999999971e-04
4.026111000000000186e-04
3.726967999999999991e-04
3.360149000000000209e-04
2.939441999999999901e-04
2.483796000000000029e-04
4.089065999999999925e-04
3.953663000000000164e-04
3.751138999999999797e-04
3.484037000000000267e-04
8.930439999999999830e-05
4.703999999999999685e-05
1.138099999999999954e-06
2.232345000000000054e-04
2.005552999999999871e-04
1.692661000000000090e-04
1.294281999999999952e-04
8.215250000000000330e-05
2.967939999999999912e-05
-2.486040000000000003e-05
-7.797970000000000151e-05
-1.264793000000000004e-04
2.851269000000000026e-04
2.730583000000000077e-04
2.518314000000000229e-04
2.202094999999999996e-04
1.778243000000000044e-04
1.256519999999999957e-04
6.623870000000000669e-05
3.451200000000000093e-06
-5.824810000000000225e-05
-1.147272999999999951e-04
-1.629342000000000095e-04
3.360495999999999817e-04
3.358961000000000043e-04
3.276199000000000038e-04
3.090370999999999960e-04
2.782422999999999906e-04
2.342428999999999930e-04
1.776923000000000131e-04
1.113518000000000000e-04
3.988200000000000203e-05
-3.111150000000000189e-05
-9.637600000000000019e-05
-1.520608000000000062e-04
-1.961576999999999939e-04
3.726305999999999759e-04
3.836468000000000213e-04
3.886081000000000106e-04
3.850721000000000092e-04
3.702932000000000142e-04
3.416199000000000189e-04
2.972658999999999892e-04
2.373440999999999897e-04
1.646665000000000064e-04
8.465570000000000332e-05
4.150599999999999698e-06
-7.033909999999999880e-05
-1.340494999999999979e-04
-1.845334999999999977e-04
-2.214449000000000116e-04
4.141753999999999987e-04
4.305477999999999844e-04
4.410095000000000269e-04
4.428114999999999937e-04
4.327166000000000237e-04
4.073557999999999801e-04
3.640803999999999980e-04
3.022817000000000234e-04
2.245958999999999955e-04
1.370313999999999972e-04
4.758550000000000036e-05
-3.596260000000000022e-05
-1.078713000000000051e-04
-1.651655000000000028e-04
-2.073715000000000118e-04
4.280808000000000096e-04
4.530348000000000014e-04
4.746311000000000236e-04
4.905359999999999669e-04
4.977713999999999620e-04
4.927367000000000422e-04
4.715030999999999953e-04
4.306628000000000062e-04
3.688343000000000069e-04
2.882356999999999888e-04
1.951087999999999911e-04
9.828689999999999573e-05
6.639099999999999674e-06
-7.312370000000000599e-05
-1.373862999999999961e-04
-1.853883000000000017e-04
-2.183705999999999993e-04
4.581120999999999739e-04
4.874456000000000210e-04
5.137648000000000518e-04
5.346147000000000095e-04
5.468533999999999505e-04
5.466680000000000454e-04
5.298252000000000040e-04
4.924474000000000516e-04
4.325202999999999795e-04
3.516592000000000025e-04
2.558433999999999839e-04
1.541679000000000118e-04
5.620369999999999858e-05
-3.046759999999999947e-05
-1.014702000000000030e-04
-1.555479000000000020e-04
-1.937204000000000096e-04
4.490431000000000240e-04
4.828154000000000191e-04
5.157576000000000304e-04
5.459710000000000214e-04
5.708977999999999536e-04
5.872845999999999709e-04
5.912439999999999926e-04
5.785175999999999513e-04
5.451504999999999502e-04
4.887996000000000354e-04
4.104126999999999949e-04
3.151966999999999768e-04
2.118082000000000027e-04
1.099882000000000051e-04
1.798820000000000169e-05
-5.898859999999999965e-05
-1.189976999999999940e-04
-1.626276000000000013e-04
-1.919648999999999889e-04
4.649305000000000169e-04
5.010287999999999894e-04
5.365505999999999921e-04
5.695487000000000379e-04
5.973938999999999725e-04
6.167787000000000313e-04
6.238592000000000052e-04
6.145843000000000443e-04
5.852798000000000202e-04
5.336209000000000395e-04
4.599629999999999734e-04
3.683984999999999864e-04
2.665443999999999886e-04
1.637553999999999941e-04
6.863269999999999766e-05
-1.286819999999999989e-05
-7.802769999999999834e-05
-1.268456999999999907e-04
-1.610477999999999931e-04
4.745939000000000234e-04
5.119143999999999518e-04
5.487832000000000213e-04
5.832345000000000281e-04
6.126213999999999618e-04
6.336628999999999873e-04
6.426717999999999884e-04
6.359615000000000537e-04
6.103572000000000251e-04
5.638080999999999865e-04
4.962543000000000032e-04
4.106269000000000173e-04
3.131907999999999762e-04
2.124512999999999966e-04
1.169270999999999939e-04
3.305749999999999986e-05
-3.574110000000000243e-05
-8.881940000000000549e-05
-1.274152999999999928e-04
4.777356999999999871e-04
5.150922999999999743e-04
5.519770999999999705e-04
5.864428000000000089e-04
6.158962999999999938e-04
6.371878000000000524e-04
6.469006999999999709e-04
6.418017000000000253e-04
6.192759999999999845e-04
5.776492000000000258e-04
5.166546999999999850e-04
4.382839000000000136e-04
3.474675000000000203e-04
2.515699000000000255e-04
1.585602999999999937e-04
7.494389999999999917e-05
4.600100000000000223e-06
-5.122310000000000090e-05
-9.321090000000000571e-05
4.744832000000000043e-04
5.107331000000000110e-04
5.463580999999999690e-04
5.794723999999999578e-04
6.076150000000000431e-04
6.278743999999999732e-04
6.372024000000000438e-04
6.328497999999999459e-04
6.127126999999999791e-04
5.754765999999999918e-04
5.208422000000000529e-04
4.501977000000000214e-04
3.673737000000000161e-04
2.785012000000000230e-04
1.906247999999999981e-04
1.098807000000000066e-04
4.029429999999999807e-05
-1.643409999999999907e-05
4.995464999999999715e-04
5.328492999999999468e-04
5.635056999999999740e-04
5.892577999999999878e-04
6.075142999999999646e-04
6.156516000000000332e-04
6.113867000000000260e-04
5.930367000000000407e-04
5.595853999999999499e-04
5.108091000000000151e-04
4.477837999999999936e-04
3.735268000000000030e-04
2.930065000000000143e-04
2.121556999999999989e-04
1.364202000000000123e-04
6.966890000000000647e-05
1.385609999999999936e-05
4.826562999999999752e-04
5.128905999999999916e-04
5.403536999999999490e-04
5.630398999999999691e-04
5.787192999999999938e-04
5.851974000000000021e-04
5.806092000000000111e-04
5.636092000000000315e-04
5.334228000000000320e-04
4.899477999999999646e-04
4.341209000000000062e-04
3.683777999999999749e-04
2.966854999999999905e-04
2.238662999999999949e-04
1.545256999999999967e-04
9.215990000000000510e-05
3.878069999999999955e-05
4.881630000000000084e-04
5.120765000000000429e-04
5.314134999999999562e-04
5.443045999999999995e-04
5.489524000000000400e-04
5.438513999999999545e-04
5.279319000000000199e-04
5.006197000000000208e-04
4.619345000000000070e-04
4.127437999999999767e-04
3.550526000000000029e-04
2.920101000000000250e-04
2.274495999999999983e-04
1.651350000000000105e-04
1.080821000000000066e-04
4.806492999999999790e-04
4.966584000000000016e-04
5.068187999999999730e-04
5.096799999999999855e-04
5.040405000000000406e-04
4.890619999999999603e-04
4.643383000000000059e-04
4.299870000000000016e-04
3.868179000000000018e-04
3.364966000000000268e-04
2.815202000000000156e-04
2.249007000000000133e-04
1.696485999999999871e-04
4.606604000000000254e-04
4.683153999999999919e-04
4.695661000000000171e-04
4.634657000000000034e-04
4.493717000000000262e-04
4.270149999999999901e-04
3.965794000000000133e-04
3.588080000000000110e-04
3.150849000000000163e-04
2.673913999999999892e-04
2.180832000000000061e-04
4.237643000000000247e-04
4.105399999999999826e-04
3.903606999999999910e-04
3.634466000000000042e-04
3.304636999999999917e-04
6.572799999999999987e-06
1.942179000000000095e-04
1.677410000000000056e-04
1.323955000000000032e-04
8.845779999999999865e-05
3.734730000000000070e-05
-1.834010000000000081e-05
-7.514729999999999793e-05
-1.293637999999999895e-04
-1.777174000000000071e-04
2.628864000000000179e-04
2.471495000000000094e-04
2.214898000000000084e-04
1.846751000000000100e-04
1.365139000000000077e-04
7.837449999999999983e-05
1.337830000000000030e-05
-5.396959999999999908e-05
-1.186739999999999957e-04
-1.763141000000000133e-04
-2.238413999999999877e-04
3.225359000000000234e-04
3.199144000000000011e-04
3.082504000000000125e-04
2.850511000000000125e-04
2.481712999999999866e-04
1.966121999999999943e-04
1.314206000000000000e-04
5.620289999999999683e-05
-2.324699999999999952e-05
-1.002404999999999968e-04
-1.688282000000000042e-04
-2.250045999999999904e-04
-2.670842000000000203e-04
3.681717000000000041e-04
3.785341000000000118e-04
3.822237000000000247e-04
3.763511999999999890e-04
3.575634000000000061e-04
3.225460999999999780e-04
2.690756000000000094e-04
1.974579000000000124e-04
1.116120000000000014e-04
1.882240000000000126e-05
-7.208299999999999408e-05
-1.531981999999999929e-04
-2.193208000000000093e-04
-2.684233999999999752e-04
-3.010757999999999881e-04
3.977577000000000152e-04
4.190291999999999758e-04
4.364726000000000196e-04
4.475699999999999991e-04
4.489836999999999886e-04
4.365346000000000200e-04
4.055991000000000110e-04
3.523350999999999870e-04
2.757789999999999764e-04
1.798125999999999934e-04
7.326869999999999867e-05
-3.252100000000000254e-05
-1.273079999999999947e-04
-2.044678999999999876e-04
-2.615636000000000176e-04
-2.994493999999999997e-04
-3.208888000000000235e-04
4.410180999999999780e-04
4.690114999999999801e-04
4.938501999999999562e-04
5.128736999999999749e-04
5.224354000000000497e-04
5.177060000000000472e-04
4.928444000000000141e-04
4.422184999999999810e-04
3.631260999999999994e-04
2.589005000000000126e-04
1.396767000000000039e-04
1.934039999999999867e-05
-8.934619999999999509e-05
-1.781688999999999875e-04
-2.441401000000000107e-04
-2.882809999999999865e-04
-3.138576999999999817e-04
4.464208000000000000e-04
4.814231999999999886e-04
5.159019000000000148e-04
5.479007999999999838e-04
5.746459999999999459e-04
5.922933000000000234e-04
5.956190999999999569e-04
5.779353000000000094e-04
5.320932000000000439e-04
4.535407000000000197e-04
3.445200999999999949e-04
2.157582999999999973e-04
8.312879999999999597e-05
-3.833650000000000133e-05
-1.387472000000000054e-04
-2.142807999999999898e-04
-2.658045000000000264e-04
-2.968299000000000089e-04
-3.117983000000000061e-04
4.769843000000000065e-04
5.171627999999999946e-04
5.574831999999999618e-04
5.959076000000000000e-04
6.295196999999999555e-04
6.543033999999999873e-04
6.648539999999999875e-04
6.541801000000000083e-04
6.143900000000000316e-04
5.395784000000000040e-04
4.305461999999999809e-04
2.974283000000000200e-04
1.567582999999999997e-04
2.509199999999999964e-05
-8.599860000000000024e-05
-1.714141000000000026e-04
-2.313572000000000013e-04
-2.691880999999999918e-04
-2.894953000000000131e-04
5.020682000000000053e-04
5.465124000000000024e-04
5.916558000000000147e-04
6.353618999999999586e-04
6.745317000000000457e-04
7.049410999999999785e-04
7.211061999999999637e-04
7.162299999999999917e-04
6.826907000000000331e-04
6.142482000000000324e-04
5.102827999999999791e-04
3.790021999999999879e-04
2.358093999999999924e-04
9.768550000000000518e-05
-2.223819999999999996e-05
-1.171494999999999937e-04
-1.860432999999999878e-04
-2.316899999999999992e-04
-2.585306000000000214e-04
4.754614000000000214e-04
5.204622999999999585e-04
5.679403999999999876e-04
6.165209999999999744e-04
6.639813000000000052e-04
7.070464999999999736e-04
7.412802000000000453e-04
7.611678999999999667e-04
7.604174999999999476e-04
7.324884000000000256e-04
6.718714000000000196e-04
5.769180000000000488e-04
4.530245000000000127e-04
3.129235999999999867e-04
1.728583000000000116e-04
4.710259999999999859e-05
-5.570609999999999847e-05
-1.330186999999999873e-04
-1.866508000000000121e-04
-2.205926999999999996e-04
-2.393566999999999982e-04
4.849456000000000144e-04
5.312766000000000016e-04
5.802793999999999791e-04
6.305681000000000046e-04
6.798646999999999893e-04
7.247844000000000465e-04
7.607761000000000428e-04
7.824108000000000408e-04
7.840654000000000503e-04
7.606175999999999866e-04
7.078848000000000432e-04
6.237623000000000299e-04
5.108759999999999517e-04
3.786495000000000073e-04
2.416017000000000013e-04
1.142873000000000060e-04
6.720699999999999876e-06
-7.703749999999999552e-05
-1.376349000000000127e-04
-1.783261000000000069e-04
-2.032385999999999958e-04
4.878285999999999799e-04
5.340952000000000156e-04
5.829601999999999484e-04
6.330196999999999864e-04
6.819753000000000230e-04
7.264377000000000464e-04
7.619321000000000297e-04
7.833440000000000542e-04
7.858319999999999802e-04
7.655936999999999812e-04
7.197383000000000339e-04
6.462052000000000247e-04
5.457262000000000267e-04
4.247831999999999888e-04
2.955418000000000238e-04
1.716889999999999888e-04
6.369119999999999762e-05
-2.327919999999999897e-05
-8.868439999999999407e-05
-1.348303000000000023e-04
-1.652089000000000031e-04
5.290851000000000278e-04
5.761994000000000317e-04
6.241527000000000186e-04
6.706708000000000027e-04
7.124861999999999819e-04
7.454265999999999757e-04
7.649427000000000310e-04
7.670323999999999849e-04
7.488886999999999844e-04
7.085194000000000387e-04
6.442038999999999665e-04
5.558836999999999849e-04
4.480075000000000029e-04
3.302348999999999779e-04
2.144168999999999969e-04
1.104504999999999956e-04
2.400209999999999844e-05
-4.339850000000000131e-05
-9.303940000000000235e-05
5.169899000000000152e-04
5.610050999999999797e-04
6.053289000000000109e-04
6.477736000000000214e-04
6.853220000000000362e-04
7.142865000000000195e-04
7.308335999999999479e-04
7.317524000000000381e-04
7.148974999999999904e-04
6.788010999999999611e-04
6.221955000000000367e-04
5.449998999999999859e-04
4.504879999999999735e-04
3.460776999999999951e-04
2.413554000000000101e-04
1.449239999999999968e-04
6.232579999999999880e-05
-4.263899999999999952e-06
-5.522019999999999690e-05
4.989954999999999695e-04
5.389703999999999719e-04
5.786721999999999786e-04
6.160704999999999827e-04
6.484957000000000395e-04
6.728329999999999598e-04
6.859729999999999864e-04
6.853717999999999963e-04
6.693187999999999655e-04
6.366733000000000288e-04
5.866162999999999760e-04
5.193449000000000156e-04
4.374878000000000230e-04
3.466758000000000122e-04
2.543223999999999962e-04
1.674535000000000053e-04
9.104829999999999358e-05
2.754780000000000076e-05
-2.273800000000000151e-05
5.119525000000000421e-04
5.465837999999999556e-04
5.785964999999999685e-04
6.057131000000000537e-04
6.253860000000000191e-04
6.351466000000000490e-04
6.329823999999999520e-04
6.175059000000000537e-04
5.878330999999999877e-04
5.435235000000000283e-04
4.850535000000000003e-04
4.146455999999999861e-04
3.365870000000000081e-04
2.564808999999999926e-04
1.798388000000000102e-04
1.108720000000000051e-04
5.198370000000000172e-05
5.113259999999999897e-04
5.380849999999999956e-04
5.601589999999999608e-04
5.755057000000000488e-04
5.821847000000000437e-04
5.786079999999999869e-04
5.636624999999999925e-04
5.366923999999999913e-04
4.975404000000000111e-04
4.468548000000000030e-04
3.865380000000000183e-04
3.198807000000000018e-04
2.510880000000000056e-04
1.843895999999999871e-04
1.232086999999999983e-04
4.967103000000000273e-04
5.142529999999999974e-04
5.257951000000000508e-04
5.298209999999999812e-04
5.250877999999999839e-04
5.107266999999999970e-04
4.862819999999999903e-04
4.517858000000000139e-04
4.079493999999999807e-04
3.563870999999999814e-04
2.996442000000000203e-04
2.408823000000000095e-04
1.833183999999999964e-04
4.696724999999999793e-04
4.779944000000000055e-04
4.798383000000000032e-04
4.742444999999999755e-04
4.605575000000000098e-04
4.384850999999999940e-04
4.081727999999999962e-04
3.703180000000000143e-04
3.262709000000000139e-04
2.780106999999999978e-04
1.268681000000000127e-04
8.817629999999999804e-05
4.144039999999999714e-05
-1.163329999999999922e-05
-6.823740000000000502e-05
-1.248335000000000102e-04
-1.777737999999999953e-04
2.293739999999999896e-04
2.091894999999999866e-04
1.787263000000000035e-04
1.369797000000000126e-04
8.412490000000000495e-05
2.198980000000000078e-05
-4.585669999999999753e-05
-1.145924000000000042e-04
-1.791111999999999869e-04
-2.350925000000000128e-04
-2.797465999999999755e-04
2.960268999999999965e-04
2.893096999999999856e-04
2.727267000000000124e-04
2.437073000000000104e-04
2.001921000000000039e-04
1.415301999999999955e-04
6.940179999999999678e-05
-1.177600000000000042e-05
-9.543550000000000470e-05
-1.743760999999999922e-04
-2.425216000000000058e-04
-2.961088000000000066e-04
-3.339412999999999735e-04
3.504030999999999791e-04
3.580901999999999957e-04
3.583190999999999894e-04
3.478430000000000237e-04
3.229037000000000031e-04
2.798910999999999739e-04
2.166493999999999929e-04
1.341547999999999916e-04
3.762049999999999666e-05
-6.407279999999999410e-05
-1.607435999999999902e-04
-2.438236999999999946e-04
-3.082507999999999863e-04
-3.527273999999999731e-04
-3.788029000000000049e-04
3.888437000000000122e-04
4.092982999999999908e-04
4.256024999999999761e-04
4.349107000000000168e-04
4.333122999999999814e-04
4.157671000000000261e-04
3.766311000000000268e-04
3.113268000000000090e-04
2.191531999999999942e-04
1.057701999999999991e-04
-1.701509999999999909e-05
-1.348932999999999914e-04
-2.358609999999999971e-04
-3.131877999999999832e-04
-3.655660999999999828e-04
-3.954890000000000076e-04
-4.072891000000000033e-04
4.409004999999999912e-04
4.700071000000000218e-04
4.960556000000000080e-04
5.160943999999999558e-04
5.258053999999999853e-04
5.190512999999999681e-04
4.879252000000000155e-04
4.244698000000000199e-04
3.249050999999999871e-04
1.945132000000000133e-04
4.849379999999999977e-05
-9.346419999999999869e-05
-2.149083000000000037e-04
-3.070861000000000142e-04
-3.687734000000000021e-04
-4.036210999999999835e-04
-4.173477000000000089e-04
4.540796000000000155e-04
4.919657999999999714e-04
5.299703000000000443e-04
5.661470000000000261e-04
5.975760999999999790e-04
6.198485000000000539e-04
6.262178999999999662e-04
6.068408999999999652e-04
5.499001000000000106e-04
4.470926999999999757e-04
3.019830000000000257e-04
1.330619000000000007e-04
-3.380119999999999750e-05
-1.770030999999999926e-04
-2.854859999999999971e-04
-3.580292000000000110e-04
-3.993870999999999966e-04
-4.165999999999999890e-04
-4.166575000000000270e-04
4.516654999999999737e-04
4.945268999999999967e-04
5.398528000000000094e-04
5.864286000000000455e-04
6.323093999999999807e-04
6.745771000000000232e-04
7.088723000000000333e-04
7.283837000000000037e-04
7.222943999999999806e-04
6.756419999999999527e-04
5.751263000000000165e-04
4.211214000000000233e-04
2.340773999999999893e-04
4.531909999999999780e-05
-1.185970999999999965e-04
-2.440111999999999923e-04
-3.291133999999999921e-04
-3.791794000000000241e-04
-4.021645000000000016e-04
-4.059544000000000108e-04
4.817083000000000107e-04
5.302946000000000439e-04
5.823583999999999705e-04
6.366892999999999555e-04
6.912392000000000276e-04
7.428963000000000450e-04
7.871507999999999717e-04
8.172942999999999788e-04
8.226929999999999920e-04
7.874070999999999848e-04
6.947861000000000054e-04
5.412614999999999744e-04
3.461960999999999836e-04
1.431278000000000021e-04
-3.785639999999999893e-05
-1.799361000000000135e-04
-2.793626999999999807e-04
-3.407681000000000078e-04
-3.723121000000000026e-04
-3.824271999999999763e-04
-3.782548000000000160e-04
5.063344000000000221e-04
5.596527000000000229e-04
6.173354999999999511e-04
6.781737999999999612e-04
7.399658999999999620e-04
7.992267000000000165e-04
8.509213000000000280e-04
8.881012000000000411e-04
9.009429999999999696e-04
8.752351999999999918e-04
7.946229000000000183e-04
6.522452000000000414e-04
4.622911999999999963e-04
2.553138000000000152e-04
6.271450000000000408e-05
-9.474560000000000306e-05
-2.096769000000000118e-04
-2.847079000000000189e-04
-3.273980000000000119e-04
-3.463202000000000186e-04
-3.490139999999999757e-04
5.243500000000000331e-04
5.810351999999999965e-04
6.427598999999999986e-04
7.083423000000000367e-04
7.754672999999999471e-04
8.402722000000000489e-04
8.970157999999999777e-04
9.380923999999999903e-04
9.544042000000000194e-04
9.351946999999999994e-04
8.680739000000000033e-04
7.447305999999999674e-04
5.712342999999999935e-04
3.705251999999999808e-04
1.730195000000000127e-04
3.514000000000000152e-06
-1.260102000000000086e-04
-2.152299000000000042e-04
-2.703844000000000061e-04
-2.997105000000000233e-04
-3.108679000000000260e-04
5.348733999999999737e-04
5.932294999999999756e-04
6.569561000000000237e-04
7.248941000000000499e-04
7.946615999999999879e-04
8.621323999999999654e-04
9.210120000000000242e-04
9.630986000000000017e-04
9.798861999999999763e-04
9.642461000000000174e-04
9.091967999999999751e-04
8.069623999999999634e-04
6.558726999999999656e-04
4.697311999999999928e-04
2.757470000000000147e-04
1.009905999999999949e-04
-3.865860000000000287e-05
-1.397105000000000102e-04
-2.064820999999999996e-04
-2.462752000000000235e-04
-2.664268000000000018e-04
5.374909999999999671e-04
5.956311999999999631e-04
6.590173000000000168e-04
7.264491000000000307e-04
7.954658999999999558e-04
8.617988999999999728e-04
9.189804000000000419e-04
9.588582000000000008e-04
9.738967999999999757e-04
9.597906999999999923e-04
9.136653999999999479e-04
8.292990999999999557e-04
7.008455000000000240e-04
5.349652000000000530e-04
3.538012000000000101e-04
1.833341999999999904e-04
4.117209999999999837e-05
-6.655730000000000055e-05
-1.418693000000000005e-04
-1.905129000000000035e-04
-2.189602999999999981e-04
5.323628999999999644e-04
5.884440000000000330e-04
6.491869999999999629e-04
7.132789000000000056e-04
7.781687000000000022e-04
8.396019999999999482e-04
8.914221000000000384e-04
9.263462999999999775e-04
9.383063999999999988e-04
9.247024999999999646e-04
8.844175999999999600e-04
8.128227999999999929e-04
7.038554000000000034e-04
5.604969000000000444e-04
3.992315000000000078e-04
2.419529999999999923e-04
1.054543000000000044e-04
-2.620500000000000152e-06
-8.206949999999999749e-05
-1.367269000000000004e-04
-1.717559000000000067e-04
5.202152000000000468e-04
5.726864000000000130e-04
6.289015999999999487e-04
6.874227999999999806e-04
7.456770999999999625e-04
7.996493000000000351e-04
8.439224000000000161e-04
8.725677000000000042e-04
8.810202000000000051e-04
8.674298000000000208e-04
8.309271000000000018e-04
7.682302000000000228e-04
6.750985000000000145e-04
5.534093000000000345e-04
4.148162999999999742e-04
2.760161999999999815e-04
1.512426999999999945e-04
4.836120000000000040e-05
-3.079000000000000167e-05
-8.819940000000000126e-05
-1.275481000000000130e-04
5.499793999999999473e-04
6.004337999999999906e-04
6.520680000000000053e-04
7.024180000000000094e-04
7.479194000000000207e-04
7.841077999999999807e-04
8.064227000000000201e-04
8.114650000000000378e-04
7.976262000000000239e-04
7.638989999999999583e-04
7.081169000000000439e-04
6.280606000000000426e-04
5.255677000000000265e-04
4.088275999999999954e-04
2.898614000000000095e-04
1.797901999999999985e-04
8.572990000000000059e-05
1.037390000000000074e-05
-4.682950000000000285e-05
5.222188000000000220e-04
5.663559999999999558e-04
6.106688999999999564e-04
6.529243000000000329e-04
6.901172000000000339e-04
7.187209999999999649e-04
7.352985999999999940e-04
7.372566999999999576e-04
7.231098999999999730e-04
6.918319000000000465e-04
6.421334999999999803e-04
5.732558000000000011e-04
4.871516999999999796e-04
3.897002999999999795e-04
2.893767000000000106e-04
1.944670000000000068e-04
1.108888000000000012e-04
4.153520000000000172e-05
-1.322460000000000040e-05
5.290819000000000208e-04
5.662897000000000070e-04
6.009547999999999539e-04
6.306311999999999465e-04
6.525907000000000062e-04
6.642408999999999510e-04
6.635610000000000119e-04
6.492355000000000218e-04
6.203810999999999614e-04
5.763397999999999872e-04
5.172036999999999555e-04
4.449062000000000264e-04
3.637795999999999890e-04
2.798117999999999829e-04
1.990453999999999900e-04
1.261575999999999930e-04
6.384329999999999910e-05
5.213133999999999477e-04
5.492379000000000358e-04
5.724305999999999535e-04
5.887956000000000179e-04
5.963664000000000031e-04
5.935642999999999779e-04
5.792996000000000126e-04
5.529044999999999576e-04
5.141359999999999984e-04
4.635002999999999844e-04
4.027726999999999935e-04
3.352087999999999813e-04
2.650932000000000050e-04
1.968134000000000018e-04
1.339672999999999938e-04
4.995670000000000232e-04
5.173372999999999774e-04
5.291227999999999817e-04
5.334276999999999682e-04
5.290339000000000239e-04
5.150925999999999682e-04
4.911495999999999570e-04
4.572115999999999984e-04
4.139368999999999839e-04
3.628688000000000248e-04
3.064831000000000066e-04
2.478938000000000083e-04
1.903038000000000125e-04
4.744692999999999806e-04
4.762470000000000093e-04
4.707549000000000217e-04
4.573647000000000021e-04
4.357984000000000185e-04
4.061986999999999976e-04
3.692363999999999737e-04
3.262052999999999784e-04
2.790014999999999748e-04
-6.378799999999999812e-06
-5.917029999999999827e-05
-1.142468000000000053e-04
1.624021000000000015e-04
1.275919999999999940e-04
8.211869999999999695e-05
2.661959999999999836e-05
-3.668769999999999773e-05
-1.040511000000000040e-04
-1.707405999999999963e-04
-2.319765999999999907e-04
-2.838795000000000185e-04
2.576718000000000086e-04
2.455728000000000012e-04
2.230824999999999974e-04
1.878646000000000038e-04
1.383156999999999876e-04
7.444240000000000405e-05
-1.364600000000000030e-06
-8.415880000000000474e-05
-1.672102000000000072e-04
-2.435425000000000014e-04
-3.075573999999999973e-04
-3.560456000000000254e-04
-3.883113999999999902e-04
3.190980000000000270e-04
3.219200999999999877e-04
3.163570000000000206e-04
2.990091999999999967e-04
2.661081999999999944e-04
2.143519000000000034e-04
1.423368999999999958e-04
5.215340000000000112e-05
-4.984419999999999958e-05
-1.540102999999999915e-04
-2.499916999999999938e-04
-3.295861000000000190e-04
-3.884219999999999752e-04
-4.259902999999999997e-04
-4.445618999999999829e-04
3.661286000000000033e-04
3.832293999999999870e-04
3.954480000000000126e-04
3.995981000000000121e-04
3.912845999999999772e-04
3.649462999999999926e-04
3.146801999999999759e-04
2.363375999999999986e-04
1.305885000000000119e-04
5.162100000000000094e-06
-1.260851999999999969e-04
-2.475679000000000052e-04
-3.471284000000000153e-04
-4.188452000000000060e-04
-4.627294000000000220e-04
-4.826418999999999978e-04
-4.840374000000000152e-04
3.966333999999999962e-04
4.252470000000000165e-04
4.525905999999999896e-04
4.764936000000000215e-04
4.936104000000000403e-04
4.988479000000000524e-04
4.848262999999999900e-04
4.421577999999999902e-04
3.619453999999999922e-04
2.411668999999999966e-04
8.821010000000000439e-05
-7.713200000000000622e-05
-2.312017999999999994e-04
-3.559322000000000072e-04
-4.434622999999999842e-04
-4.949080999999999923e-04
-5.165007999999999795e-04
-5.160480999999999966e-04
4.477538000000000091e-04
4.859700000000000109e-04
5.246241000000000446e-04
5.617855999999999631e-04
5.943475000000000147e-04
6.171842999999999991e-04
6.217737999999999998e-04
5.949972999999999894e-04
5.208615999999999463e-04
3.887612000000000142e-04
2.056221000000000112e-04
-8.223999999999999526e-07
-1.948778999999999930e-04
-3.501085000000000243e-04
-4.564983999999999795e-04
-5.170892000000000500e-04
-5.412922999999999606e-04
-5.397382999999999955e-04
-5.216504999999999753e-04
4.529884999999999880e-04
4.978180000000000235e-04
5.458530000000000066e-04
5.961052999999999795e-04
6.469148000000000086e-04
6.956446999999999501e-04
7.378807999999999504e-04
7.653964000000000297e-04
7.626167000000000536e-04
7.051177999999999526e-04
5.697105999999999525e-04
3.577168999999999835e-04
1.062815999999999956e-04
-1.326540000000000076e-04
-3.221152999999999820e-04
-4.500150000000000070e-04
-5.219324000000000446e-04
-5.507993999999999564e-04
-5.501386999999999510e-04
-5.311066999999999611e-04
-5.018336000000000194e-04
4.919726000000000134e-04
5.447536000000000218e-04
6.022846000000000102e-04
6.636767000000000014e-04
7.273358000000000167e-04
7.908508000000000074e-04
8.506148000000000268e-04
8.999853999999999840e-04
9.238411000000000409e-04
8.914110999999999736e-04
7.640974999999999937e-04
5.323790999999999593e-04
2.414233999999999966e-04
-3.961509999999999955e-05
-2.630204000000000136e-04
-4.143796000000000263e-04
-5.009504999999999601e-04
-5.382768000000000231e-04
-5.421843000000000192e-04
-5.254819999999999674e-04
-4.973462000000000325e-04
4.727945000000000216e-04
5.264195000000000376e-04
5.864378000000000386e-04
6.526715000000000207e-04
7.242486999999999493e-04
7.993679000000000279e-04
8.751991000000000414e-04
9.479135000000000512e-04
1.011943900000000047e-03
1.055099199999999949e-03
1.046832400000000064e-03
9.382778000000000038e-04
7.066552000000000033e-04
3.972420999999999960e-04
8.848719999999999535e-05
-1.638931000000000047e-04
-3.406141000000000225e-04
-4.468774999999999917e-04
-4.983742999999999897e-04
-5.121120000000000056e-04
-5.021925000000000000e-04
-4.788115999999999813e-04
4.961543999999999807e-04
5.546702000000000143e-04
6.207533000000000321e-04
6.944126999999999592e-04
7.748438000000000504e-04
8.600075999999999684e-04
9.462570000000000443e-04
1.028212400000000056e-03
1.098935600000000090e-03
1.148343899999999893e-03
1.153399500000000001e-03
1.069201699999999897e-03
8.639786999999999684e-04
5.684973999999999757e-04
2.532958999999999883e-04
-2.150460000000000075e-05
-2.260654999999999924e-04
-3.579057999999999979e-04
-4.299295999999999977e-04
-4.592021000000000058e-04
-4.608149999999999985e-04
-4.460013999999999884e-04
-4.223550999999999976e-04
5.132386000000000500e-04
5.752228999999999979e-04
6.456766999999999975e-04
7.248321999999999751e-04
8.120792000000000158e-04
9.053868000000000506e-04
1.000549600000000088e-03
1.090365600000000029e-03
1.164518700000000042e-03
1.211500799999999959e-03
1.217855299999999995e-03
1.157055599999999920e-03
9.978580999999999389e-04
7.434909999999999870e-04
4.401915999999999750e-04
1.501344999999999904e-04
-8.182590000000000544e-05
-2.419006999999999928e-04
-3.382581999999999863e-04
-3.870149000000000137e-04
-4.037625999999999889e-04
-4.005847000000000205e-04
-3.858805000000000199e-04
5.232363000000000508e-04
5.869258000000000244e-04
6.595378000000000265e-04
7.414671000000000282e-04
8.322951999999999998e-04
9.301249000000000365e-04
1.030536299999999968e-03
1.125061600000000104e-03
1.200203599999999935e-03
1.241315700000000018e-03
1.241810799999999932e-03
1.197315200000000079e-03
1.085540000000000073e-03
8.826424999999999505e-04
6.059595000000000519e-04
3.150542999999999898e-04
6.625289999999999717e-05
-1.162447000000000019e-04
-2.348057999999999873e-04
-3.031026999999999940e-04
-3.360812000000000239e-04
-3.459897999999999988e-04
-3.416841000000000106e-04
5.257748999999999930e-04
5.892160000000000453e-04
6.614422000000000010e-04
7.428302999999999816e-04
8.329334999999999560e-04
9.297567999999999545e-04
1.028561899999999975e-03
1.120129600000000078e-03
1.189827299999999958e-03
1.222741100000000096e-03
1.216819100000000094e-03
1.180410200000000078e-03
1.100384899999999914e-03
9.423494000000000141e-04
7.043031000000000161e-04
4.346616000000000195e-04
1.896017000000000112e-04
-1.006900000000000050e-06
-1.333863999999999872e-04
-2.169283999999999948e-04
-2.642748999999999793e-04
-2.867227999999999986e-04
-2.929216999999999910e-04
5.210063999999999928e-04
5.822913999999999998e-04
6.516258999999999506e-04
7.291598000000000046e-04
8.141514999999999993e-04
9.042232999999999998e-04
9.942296000000001074e-04
1.074947400000000062e-03
1.133227899999999979e-03
1.157586900000000035e-03
1.148573900000000045e-03
1.115224400000000083e-03
1.049076099999999949e-03
9.217843000000000304e-04
7.259206000000000035e-04
4.943779999999999616e-04
2.725903000000000115e-04
8.988610000000000664e-05
-4.521409999999999796e-05
-1.370309999999999963e-04
-1.946573999999999906e-04
-2.273900000000000031e-04
-2.429416000000000052e-04
5.671076999999999846e-04
6.314803000000000126e-04
7.025176000000000380e-04
7.790797000000000347e-04
8.584193000000000162e-04
9.353386999999999899e-04
1.001619299999999919e-03
1.047128399999999954e-03
1.064443200000000055e-03
1.054405100000000046e-03
1.021857099999999964e-03
9.606487999999999833e-04
8.533673999999999774e-04
6.947747999999999468e-04
5.051183999999999579e-04
3.161831000000000255e-04
1.523154000000000088e-04
2.397139999999999888e-05
-6.900369999999999800e-05
-1.320016999999999935e-04
-1.718156000000000089e-04
5.451834000000000020e-04
6.032115999999999693e-04
6.661545999999999527e-04
7.325677999999999964e-04
7.995978000000000373e-04
8.625116000000000380e-04
9.147025000000000468e-04
9.490145000000000395e-04
9.607319000000000232e-04
9.497992000000000457e-04
9.175430999999999735e-04
8.596823999999999872e-04
7.673080999999999999e-04
6.385705999999999674e-04
4.859735999999999917e-04
3.302337999999999823e-04
1.894640000000000007e-04
7.360920000000000668e-05
-1.505650000000000060e-05
-7.897269999999999692e-05
-1.225467999999999902e-04
5.693322999999999700e-04
6.236158999999999800e-04
6.795854999999999735e-04
7.345633999999999541e-04
7.845839999999999542e-04
8.246576000000000036e-04
8.498305999999999742e-04
8.568255000000000315e-04
8.447541000000000034e-04
8.132359000000000246e-04
7.595994000000000444e-04
6.799736999999999709e-04
5.747627999999999852e-04
4.521606999999999753e-04
3.254830000000000006e-04
2.074442000000000018e-04
1.062924000000000057e-04
2.521539999999999917e-05
-3.631059999999999757e-05
5.322195999999999958e-04
5.780590000000000164e-04
6.242256999999999754e-04
6.683813000000000037e-04
7.073675000000000405e-04
7.375042000000000056e-04
7.552938000000000360e-04
7.582544000000000090e-04
7.451374000000000192e-04
7.150582000000000379e-04
6.665425999999999903e-04
5.983377000000000227e-04
5.119006000000000164e-04
4.129420000000000182e-04
3.101697000000000265e-04
2.123226999999999992e-04
1.257615000000000122e-04
5.367929999999999951e-05
-3.412600000000000157e-06
5.319415999999999554e-04
5.694139999999999662e-04
6.043202999999999813e-04
6.342055999999999779e-04
6.563571000000000249e-04
6.682349999999999879e-04
6.679010000000000415e-04
6.541211999999999808e-04
6.260518000000000289e-04
5.830050999999999723e-04
5.249643000000000451e-04
4.536892000000000268e-04
3.733260999999999763e-04
2.897355999999999912e-04
2.089329999999999866e-04
1.356560000000000036e-04
7.270500000000000270e-05
5.170249000000000242e-04
5.442592999999999476e-04
5.668010000000000236e-04
5.826337999999999916e-04
5.898788000000000078e-04
5.870339000000000243e-04
5.730627999999999981e-04
5.473347000000000368e-04
5.096322999999999825e-04
4.604537000000000126e-04
4.014883000000000232e-04
3.358138000000000204e-04
2.674921999999999933e-04
2.007180000000000119e-04
1.389789000000000053e-04
5.058347999999999837e-04
5.167493999999999690e-04
5.204691000000000005e-04
5.158550999999999935e-04
5.021160999999999680e-04
4.788428999999999754e-04
4.460771999999999784e-04
4.044782000000000130e-04
3.555168999999999842e-04
3.015048000000000207e-04
2.453294999999999760e-04
4.596469000000000054e-04
4.538974000000000090e-04
4.407082999999999899e-04
4.198469000000000137e-04
3.914823000000000109e-04
3.562743999999999850e-04
3.154427999999999811e-04
7.413229999999999494e-05
2.696060000000000069e-05
-2.854649999999999850e-05
-8.998219999999999374e-05
-1.537303000000000009e-04
-2.155132000000000087e-04
-2.711880000000000063e-04
2.108695000000000111e-04
1.930241000000000075e-04
1.648019999999999986e-04
1.243876999999999949e-04
7.087669999999999854e-05
5.008500000000000412e-06
-7.031099999999999817e-05
-1.500817999999999900e-04
-2.280468999999999866e-04
-2.980538999999999823e-04
-3.553763000000000147e-04
-3.974763000000000081e-04
2.762654999999999928e-04
2.725755000000000062e-04
2.596888999999999795e-04
2.343892000000000089e-04
1.933970999999999987e-04
1.342968000000000048e-04
5.687089999999999789e-05
-3.568039999999999808e-05
-1.364722999999999978e-04
-2.361802999999999993e-04
-3.254366000000000073e-04
-3.972143999999999827e-04
-4.481016999999999791e-04
-4.781815000000000024e-04
3.302657999999999983e-04
3.414833999999999838e-04
3.466969999999999774e-04
3.424783999999999836e-04
3.242645999999999853e-04
2.866457999999999788e-04
2.245319999999999976e-04
1.354105999999999940e-04
2.201199999999999864e-05
-1.063797000000000006e-04
-2.356213999999999867e-04
-3.510586000000000002e-04
-4.420067000000000180e-04
-5.039187999999999567e-04
-5.378073999999999832e-04
-5.481623000000000355e-04
3.691146999999999983e-04
3.933545000000000097e-04
4.154917000000000050e-04
4.330480999999999849e-04
4.421598000000000217e-04
4.369945999999999987e-04
4.094664000000000138e-04
3.501975000000000162e-04
2.518517999999999864e-04
1.145765999999999967e-04
-4.979149999999999923e-05
-2.194680999999999867e-04
-3.708580000000000058e-04
-4.873659000000000021e-04
-5.631024999999999572e-04
-6.010469000000000271e-04
-6.088908000000000081e-04
-5.954162999999999730e-04
4.259404999999999854e-04
4.611665000000000035e-04
4.964270999999999484e-04
5.295805000000000434e-04
5.569465999999999913e-04
5.721610999999999928e-04
5.646814999999999907e-04
5.192737999999999477e-04
4.195510999999999750e-04
2.580080000000000004e-04
4.769490000000000307e-05
-1.774319999999999912e-04
-3.782713999999999847e-04
-5.286836999999999743e-04
-6.215987000000000292e-04
-6.638727999999999773e-04
-6.682237999999999633e-04
-6.475126999999999576e-04
-6.121590999999999578e-04
4.402963999999999880e-04
4.841054000000000017e-04
5.313079999999999756e-04
5.810958999999999873e-04
6.319856000000000432e-04
6.812799000000000025e-04
7.236636000000000284e-04
7.481564999999999917e-04
7.338518999999999728e-04
6.497971999999999863e-04
4.701764000000000204e-04
2.036852999999999927e-04
-9.641850000000000529e-05
-3.639625999999999972e-04
-5.580684000000000252e-04
-6.718050999999999624e-04
-7.190029999999999599e-04
-7.195975000000000505e-04
-6.915104999999999516e-04
-6.480423999999999603e-04
4.392021000000000076e-04
4.874869999999999898e-04
5.413847000000000277e-04
6.008504999999999489e-04
6.654418999999999959e-04
7.342759999999999608e-04
8.059839000000000066e-04
8.780052000000000212e-04
9.431036000000000280e-04
9.796665000000000841e-04
9.391090999999999632e-04
7.593663999999999536e-04
4.302773000000000079e-04
3.456559999999999987e-05
-3.167690999999999823e-04
-5.630691999999999859e-04
-7.010048999999999534e-04
-7.549195000000000081e-04
-7.534949000000000421e-04
-7.200111000000000358e-04
-6.705237999999999650e-04
-6.150504000000000431e-04
4.754380999999999907e-04
5.316700000000000375e-04
5.953755999999999719e-04
6.667554999999999489e-04
7.454831999999999778e-04
8.306986999999999618e-04
9.214702000000000396e-04
1.017702000000000103e-03
1.119234700000000006e-03
1.214023500000000009e-03
2.136530999999999890e-04
-2.248112999999999934e-04
-5.249052999999999835e-04
-6.903344999999999751e-04
-7.560203000000000366e-04
-7.582125000000000323e-04
-7.246703999999999863e-04
-6.738077000000000302e-04
-6.167411000000000030e-04
5.074006999999999953e-04
5.708627000000000189e-04
6.436134000000000473e-04
7.261003000000000249e-04
8.179752999999999677e-04
9.177913999999999690e-04
1.023278600000000066e-03
1.133102599999999969e-03
1.250204499999999939e-03
-7.054289999999999844e-05
-4.172208999999999749e-04
-6.170394000000000269e-04
-7.058802999999999779e-04
-7.227177999999999467e-04
-6.982950999999999612e-04
-6.532568000000000099e-04
-6.001052000000000426e-04
-5.458286999999999601e-04
5.335786000000000348e-04
6.030744999999999465e-04
6.835514000000000433e-04
7.758398000000000117e-04
8.798166999999999750e-04
9.936802999999999261e-04
1.113340399999999909e-03
1.232745300000000037e-03
1.759657000000000083e-04
-2.152059000000000057e-04
-4.655328999999999826e-04
-5.954263000000000220e-04
-6.417919000000000445e-04
-6.378850000000000362e-04
-6.071561000000000059e-04
-5.641768999999999821e-04
-5.173015000000000209e-04
5.526252000000000161e-04
6.264317000000000149e-04
7.125877000000000079e-04
8.124420000000000253e-04
9.265309999999999692e-04
1.053721400000000004e-03
1.189980999999999895e-03
1.326438799999999935e-03
6.909310000000000430e-05
-2.478781000000000213e-04
-4.333938000000000178e-04
-5.212116000000000362e-04
-5.472276000000000527e-04
-5.380413999999999813e-04
-5.107020000000000309e-04
-4.753240000000000048e-04
5.635355999999999786e-04
6.394392999999999952e-04
7.284223999999999734e-04
8.322496999999999881e-04
9.521465999999999480e-04
1.088043599999999897e-03
1.237211200000000065e-03
1.390815699999999912e-03
3.561866000000000229e-04
-1.314629999999999982e-05
-2.488796999999999949e-04
-3.783778999999999810e-04
-4.370026999999999961e-04
-4.526662999999999997e-04
-4.440768000000000102e-04
-4.228354000000000140e-04
5.658409000000000529e-04
6.413403000000000029e-04
7.297471000000000253e-04
8.328542000000000193e-04
9.519774999999999635e-04
1.087142500000000097e-03
1.235354500000000093e-03
1.386163500000000106e-03
5.509113999999999851e-04
1.796703000000000135e-04
-7.818229999999999852e-05
-2.359084000000000062e-04
-3.215537999999999773e-04
-3.603022000000000212e-04
-3.704135000000000001e-04
-3.639456000000000006e-04
5.597329000000000497e-04
6.323811999999999619e-04
7.168389000000000054e-04
8.144727999999999517e-04
9.259574999999999924e-04
1.050247299999999915e-03
1.182487500000000032e-03
1.309914300000000016e-03
1.406664200000000029e-03
9.836979000000000469e-04
6.275748999999999737e-04
3.014938000000000101e-04
5.408230000000000226e-05
-1.122959000000000034e-04
-2.140564000000000128e-04
-2.701388999999999895e-04
-2.960912000000000223e-04
-3.031010000000000106e-04
5.460479000000000071e-04
6.138075999999999472e-04
6.915941999999999793e-04
7.800892000000000459e-04
8.790150000000000264e-04
9.860558000000000604e-04
1.095026700000000051e-03
1.193475299999999933e-03
1.262352499999999959e-03
1.285591200000000059e-03
1.271383799999999901e-03
1.248793300000000097e-03
1.211711099999999899e-03
1.102826099999999927e-03
8.927008000000000165e-04
6.229770000000000359e-04
3.589805999999999965e-04
1.420527999999999895e-04
-1.658369999999999845e-05
-1.230256999999999900e-04
-1.891046999999999921e-04
-2.264159000000000017e-04
-2.442599999999999958e-04
5.875754000000000393e-04
6.569790999999999522e-04
7.343197000000000092e-04
8.185288999999999890e-04
9.065914999999999477e-04
9.923949000000000485e-04
1.065967400000000049e-03
1.115157099999999901e-03
1.132322600000000047e-03
1.122156000000000022e-03
1.095088900000000011e-03
1.044587499999999987e-03
9.447722999999999668e-04
7.828842999999999610e-04
5.797813000000000185e-04
3.730896999999999729e-04
1.924570999999999975e-04
5.083589999999999892e-05
-5.161729999999999791e-05
-1.209656999999999996e-04
-1.648718000000000026e-04
5.559321000000000098e-04
6.162659000000000453e-04
6.819700999999999845e-04
7.515437999999999719e-04
8.219158000000000497e-04
8.879153999999999996e-04
9.423581999999999792e-04
9.777360000000000998e-04
9.897527000000000148e-04
9.796333000000000384e-04
9.498707999999999587e-04
8.958749999999999700e-04
8.068008999999999684e-04
6.787111999999999876e-04
5.234481999999999937e-04
3.626489000000000101e-04
2.159349999999999985e-04
9.443729999999999790e-05
1.015400000000000053e-06
-6.664359999999999327e-05
-1.130538999999999985e-04
5.724261999999999710e-04
6.270782999999999826e-04
6.833819999999999565e-04
7.385888000000000392e-04
7.886590000000000397e-04
8.285894000000000462e-04
8.535559999999999979e-04
8.605594000000000264e-04
8.490006000000000245e-04
8.186489999999999609e-04
7.668361000000000491e-04
6.895281999999999757e-04
5.866992999999999818e-04
4.659552000000000073e-04
3.401984000000000258e-04
2.220981000000000073e-04
1.201327000000000026e-04
3.780289999999999681e-05
-2.514960000000000058e-05
5.725825999999999616e-04
6.174906000000000405e-04
6.602500000000000296e-04
6.978050000000000181e-04
7.266501000000000514e-04
7.434997999999999520e-04
7.460357999999999833e-04
7.330624999999999902e-04
7.037159999999999553e-04
6.566572000000000121e-04
5.908248000000000492e-04
5.076342999999999654e-04
4.123633000000000029e-04
3.130861999999999773e-04
2.180324000000000032e-04
1.333433000000000079e-04
6.225150000000000529e-05
5.558273000000000510e-04
5.886087999999999607e-04
6.164401000000000342e-04
6.368151999999999537e-04
6.473962000000000206e-04
6.463760999999999726e-04
6.325705000000000043e-04
6.051887000000000152e-04
5.636893999999999499e-04
5.082293000000000097e-04
4.405546999999999784e-04
3.644726999999999841e-04
2.852767999999999992e-04
2.084272000000000024e-04
1.383041999999999963e-04
5.242222999999999631e-04
5.445615000000000004e-04
5.585189000000000169e-04
5.643936999999999695e-04
5.608117999999999827e-04
5.468165000000000525e-04
5.218561999999999724e-04
4.858266000000000082e-04
4.393180000000000110e-04
3.839658000000000025e-04
3.225673999999999772e-04
2.587317000000000219e-04
1.961792999999999870e-04
4.816121999999999829e-04
4.907698000000000052e-04
4.932261999999999974e-04
4.879665000000000044e-04
4.742923999999999925e-04
4.518748999999999856e-04
4.208282999999999837e-04
3.818389999999999740e-04
3.362932999999999808e-04
2.862675999999999762e-04
2.342993999999999882e-04
4.131998999999999807e-04
1.377127000000000071e-04
1.051790999999999973e-04
6.177849999999999813e-05
7.323900000000000301e-06
-5.688550000000000279e-05
-1.277968000000000094e-04
-2.008273999999999942e-04
-2.706332999999999894e-04
-3.321846999999999842e-04
-3.817407999999999891e-04
2.260348999999999930e-04
2.153723999999999981e-04
1.951737000000000046e-04
1.627610000000000092e-04
1.157342999999999941e-04
5.283129999999999679e-05
-2.503629999999999948e-05
-1.140443000000000018e-04
-2.075957000000000019e-04
-2.975685000000000157e-04
-3.762513000000000207e-04
-4.381031999999999765e-04
-4.806208999999999980e-04
-5.041714000000000091e-04
2.840817999999999946e-04
2.876808000000000121e-04
2.840950999999999763e-04
2.699476000000000241e-04
2.410513999999999940e-04
1.929417999999999964e-04
1.221759999999999903e-04
2.831460000000000162e-05
-8.424770000000000316e-05
-2.059599000000000065e-04
-3.241272000000000228e-04
-4.265356999999999894e-04
-5.047715999999999835e-04
-5.556556000000000472e-04
-5.806278999999999911e-04
-5.840119999999999643e-04
3.297190000000000190e-04
3.470357999999999885e-04
3.608571999999999778e-04
3.683682000000000080e-04
3.653373000000000232e-04
3.457482999999999911e-04
3.020114999999999866e-04
2.265923999999999890e-04
1.155331999999999936e-04
-2.726980000000000105e-05
-1.881124999999999985e-04
-3.465562999999999738e-04
-4.825205999999999961e-04
-5.828831000000000030e-04
-6.438591999999999493e-04
-6.691781000000000161e-04
-6.665071999999999533e-04
-6.443262999999999638e-04
3.606284000000000182e-04
3.890996999999999772e-04
4.177820000000000058e-04
4.451222000000000121e-04
4.684617000000000078e-04
4.832406999999999827e-04
4.818439000000000099e-04
4.526814999999999789e-04
3.812670000000000208e-04
2.555972999999999795e-04
7.552710000000000402e-05
-1.401395999999999957e-04
-3.574580000000000053e-04
-5.419376999999999528e-04
-6.725384000000000050e-04
-7.454980000000000374e-04
-7.692699000000000325e-04
-7.571945000000000498e-04
-7.222847999999999595e-04
-6.748801000000000236e-04
4.131634000000000023e-04
4.525148999999999795e-04
4.945563000000000476e-04
5.383598999999999546e-04
5.820887999999999757e-04
6.220255999999999962e-04
6.504930000000000347e-04
6.525842999999999922e-04
6.039999000000000106e-04
4.762532000000000093e-04
2.549922999999999947e-04
-3.757910000000000075e-05
-3.431347000000000065e-04
-5.992429000000000288e-04
-7.713919000000000505e-04
-8.581809000000000355e-04
-8.775305000000000171e-04
-8.520239000000000198e-04
-8.009463999999999993e-04
-7.380191999999999829e-04
4.209767000000000110e-04
4.667154999999999871e-04
5.178609999999999941e-04
5.745372999999999583e-04
6.366081999999999470e-04
7.035696000000000137e-04
7.740417999999999995e-04
8.436588000000000073e-04
8.991599999999999766e-04
9.080756999999999631e-04
8.133950999999999942e-04
5.600053999999999492e-04
1.603937999999999957e-04
-2.808422000000000197e-04
-6.438042999999999847e-04
-8.721653999999999692e-04
-9.740925999999999578e-04
-9.854989000000001064e-04
-9.428594000000000211e-04
-8.732339999999999677e-04
-7.937572000000000377e-04
-7.141384000000000403e-04
4.638727999999999949e-04
5.193209999999999970e-04
5.825860999999999887e-04
6.542635999999999678e-04
7.347726999999999861e-04
8.246304000000000524e-04
9.251895999999999688e-04
1.039013199999999941e-03
1.165523599999999894e-03
1.281050900000000031e-03
-6.593293999999999761e-04
-9.584123999999999855e-04
-1.075599499999999953e-03
-1.076784899999999991e-03
-1.016156500000000001e-03
-9.287613999999999809e-04
-8.344767000000000330e-04
-7.434269999999999550e-04
4.480859000000000122e-04
5.039215000000000100e-04
5.688169999999999988e-04
6.439650000000000322e-04
7.302946999999999520e-04
8.282460000000000386e-04
9.379441000000000514e-04
1.060872600000000018e-03
1.204675899999999977e-03
-9.967483999999999112e-04
-1.129832299999999987e-03
-1.125210599999999957e-03
-1.053093499999999908e-03
-9.546567000000000377e-04
-8.515778000000000106e-04
-7.540939000000000409e-04
-6.662780999999999999e-04
4.767751000000000085e-04
5.393470999999999509e-04
6.129265999999999534e-04
6.992056000000000399e-04
7.994983000000000428e-04
9.140721999999999996e-04
1.041405100000000056e-03
1.178645899999999956e-03
1.327001200000000030e-03
-9.243125000000000039e-04
-1.087387499999999943e-03
-1.098077000000000037e-03
-1.033282400000000087e-03
-9.384441000000000093e-04
-8.374413999999999947e-04
-7.414604000000000203e-04
-6.549244000000000072e-04
5.002477000000000182e-04
5.683857000000000492e-04
6.492965000000000065e-04
7.452958999999999669e-04
8.584301000000000128e-04
9.895304000000001033e-04
1.136548700000000051e-03
1.292504600000000080e-03
-9.002414000000000032e-04
-9.702245999999999874e-04
-9.434133999999999619e-04
-8.729690000000000236e-04
-7.881764000000000521e-04
-7.033973999999999479e-04
-6.248793000000000533e-04
5.173690000000000537e-04
5.894296000000000257e-04
6.756200000000000400e-04
7.789179999999999715e-04
9.024286999999999543e-04
1.048668599999999984e-03
1.218186200000000077e-03
1.407622799999999922e-03
-5.709458999999999845e-04
-7.469193999999999964e-04
-7.877223000000000254e-04
-7.612966000000000524e-04
-7.059860000000000267e-04
-6.415055999999999927e-04
-5.773195999999999536e-04
5.273202999999999528e-04
6.012571000000000408e-04
6.899923000000000514e-04
7.969518000000000088e-04
9.261137999999999489e-04
1.081753300000000070e-03
1.268058000000000076e-03
1.489337299999999968e-03
-1.895003999999999992e-04
-4.745678999999999935e-04
-5.914028999999999684e-04
-6.178743000000000212e-04
-5.995640000000000214e-04
-5.612346999999999952e-04
-5.157821000000000367e-04
5.297395000000000532e-04
6.032954000000000311e-04
6.914312000000000149e-04
7.975668999999999684e-04
9.257879000000000542e-04
1.080736600000000098e-03
1.267367599999999917e-03
1.490621400000000053e-03
1.228926000000000031e-04
-2.175125999999999882e-04
-3.905782999999999803e-04
-4.638824000000000159e-04
-4.817879999999999754e-04
-4.706698000000000045e-04
-4.454931999999999989e-04
5.248003999999999907e-04
5.957898999999999791e-04
6.802594999999999606e-04
7.811339000000000260e-04
9.017400999999999759e-04
1.045457500000000024e-03
1.214745199999999999e-03
1.408548400000000055e-03
1.614449499999999959e-03
8.036051000000000218e-04
3.111068999999999944e-04
-1.966270000000000065e-05
-2.155844000000000022e-04
-3.193639000000000070e-04
-3.657837000000000263e-04
-3.784629000000000183e-04
-3.722339999999999872e-04
5.797759000000000202e-04
6.580788000000000392e-04
7.502182999999999725e-04
8.582899000000000170e-04
9.837356999999999265e-04
1.125866600000000094e-03
1.278628200000000038e-03
1.424359299999999927e-03
1.526744200000000086e-03
1.166743899999999907e-03
7.679695999999999528e-04
3.939605999999999902e-04
1.094388000000000066e-04
-8.114829999999999689e-05
-1.973075999999999877e-04
-2.615006999999999813e-04
-2.918578000000000231e-04
-3.011863999999999731e-04
5.568599000000000248e-04
6.273512000000000186e-04
7.087155000000000147e-04
8.018335000000000132e-04
9.065059000000000311e-04
1.020092999999999911e-03
1.135214100000000092e-03
1.237042100000000080e-03
1.304042899999999922e-03
1.320986199999999973e-03
1.302449900000000101e-03
1.284466599999999938e-03
1.260910000000000069e-03
1.166505499999999926e-03
9.624326000000000322e-04
6.876210999999999478e-04
4.117926000000000052e-04
1.818916000000000120e-04
1.226859999999999973e-05
-1.023943000000000032e-04
-1.742693000000000020e-04
-2.155716000000000012e-04
-2.361576000000000105e-04
5.908308000000000353e-04
6.607639999999999911e-04
7.386766999999999812e-04
8.233929999999999548e-04
9.116576999999999840e-04
9.969740999999998979e-04
1.069045399999999941e-03
1.116001500000000099e-03
1.131427599999999941e-03
1.121170400000000029e-03
1.095526699999999900e-03
1.047871199999999984e-03
9.531344999999999661e-04
7.978574000000000430e-04
6.002905000000000220e-04
3.962360000000000057e-04
2.154361000000000091e-04
7.189950000000000507e-05
-3.320010000000000083e-05
-1.052824000000000002e-04
-1.516955999999999914e-04
5.510890000000000493e-04
6.099659999999999804e-04
6.738045999999999489e-04
7.410335000000000533e-04
8.085673000000000469e-04
8.713733999999999673e-04
9.226832999999999823e-04
9.556739999999999983e-04
9.665831999999999853e-04
9.563873000000000513e-04
9.268853000000000075e-04
8.738774000000000368e-04
7.881767999999999717e-04
6.666021000000000056e-04
5.195697000000000206e-04
3.664094000000000227e-04
2.252446000000000016e-04
1.069129999999999977e-04
1.471180000000000033e-05
-5.303299999999999860e-05
-1.002782999999999984e-04
5.590531000000000363e-04
6.105998999999999542e-04
6.632787999999999488e-04
7.144717999999999989e-04
7.604575000000000353e-04
7.967474000000000214e-04
8.190677999999999848e-04
8.246554000000000124e-04
8.126340000000000126e-04
7.824519999999999956e-04
7.319088999999999543e-04
6.581430999999999566e-04
5.617384000000000223e-04
4.494642000000000190e-04
3.324668999999999932e-04
2.218565999999999995e-04
1.253542999999999867e-04
4.643930000000000106e-05
-1.476939999999999957e-05
5.510749000000000116e-04
5.919974999999999847e-04
6.305354000000000210e-04
6.639598999999999718e-04
6.891980000000000241e-04
7.033630000000000351e-04
7.043140999999999725e-04
6.907834999999999974e-04
6.618788000000000232e-04
6.166347000000000408e-04
5.546381000000000184e-04
4.775760000000000096e-04
3.901476000000000184e-04
2.992151999999999876e-04
2.117823000000000069e-04
1.332140999999999957e-04
6.650439999999999976e-05
5.278305999999999536e-04
5.566510000000000208e-04
5.806971999999999872e-04
5.977985000000000330e-04
6.059178000000000350e-04
6.034281999999999970e-04
5.892134000000000260e-04
5.625788999999999747e-04
5.232340999999999511e-04
4.716381000000000067e-04
4.095772999999999927e-04
3.404144000000000115e-04
2.686147999999999748e-04
1.987548999999999967e-04
1.345697999999999935e-04
4.921195000000000170e-04
5.091794000000000398e-04
5.203373000000000503e-04
5.241306999999999520e-04
5.193624000000000200e-04
5.051978999999999628e-04
4.812058999999999933e-04
4.474316000000000209e-04
4.045756999999999761e-04
3.541991000000000085e-04
2.987458999999999818e-04
2.412499000000000024e-04
1.848093999999999995e-04
4.547468999999999947e-04
4.555486999999999774e-04
4.494305000000000196e-04
4.358186000000000221e-04
4.144870999999999842e-04
3.856299999999999789e-04
3.499484000000000188e-04
3.087127999999999964e-04
2.637191000000000209e-04
7.107900000000000166e-06
-4.530099999999999877e-05
-1.048202000000000031e-04
-1.685939000000000122e-04
-2.327526999999999916e-04
1.568883999999999936e-04
1.309328000000000011e-04
9.384739999999999868e-05
4.422169999999999709e-05
-1.816899999999999833e-05
-9.169019999999999840e-05
-1.725149000000000040e-04
-2.549569000000000119e-04
-3.325135999999999804e-04
-3.992655999999999809e-04
-4.510699999999999757e-04
2.277915000000000094e-04
2.154736000000000032e-04
1.922441000000000048e-04
1.547933999999999942e-04
1.000864999999999980e-04
2.650559999999999912e-05
-6.474270000000000610e-05
-1.686484000000000030e-04
-2.766787999999999843e-04
-3.785869999999999990e-04
-4.650491000000000195e-04
-5.298777000000000174e-04
-5.709038000000000480e-04
-5.894868000000000156e-04
2.818658000000000144e-04
2.907427999999999770e-04
2.945801999999999752e-04
2.904310000000000116e-04
2.741848000000000180e-04
2.405405000000000054e-04
1.836441999999999925e-04
9.887520000000000499e-05
-1.430989999999999999e-05
-1.497819999999999967e-04
-2.944956000000000201e-04
-4.316799000000000070e-04
-5.460683999999999504e-04
-6.282065999999999562e-04
-6.758015000000000246e-04
-6.922970000000000295e-04
-6.842448000000000323e-04
3.400365000000000028e-04
3.593286000000000006e-04
3.751711000000000238e-04
3.843516999999999745e-04
3.817420000000000188e-04
3.595819000000000207e-04
3.075285999999999883e-04
2.149270999999999907e-04
7.621239999999999558e-05
-1.025458000000000034e-04
-3.011989000000000073e-04
-4.911076999999999804e-04
-6.461229000000000408e-04
-7.514696999999999653e-04
-8.056231000000000286e-04
-8.164153000000000165e-04
-7.955554000000000098e-04
-7.545343999999999836e-04
3.730836000000000070e-04
4.047216999999999980e-04
4.373207999999999956e-04
4.694171000000000021e-04
4.982609000000000257e-04
5.186019000000000262e-04
5.206489999999999816e-04
4.880379000000000119e-04
3.990318999999999767e-04
2.354408999999999907e-04
-1.683900000000000090e-06
-2.816979999999999853e-04
-5.533089999999999840e-04
-7.692175000000000531e-04
-9.058515000000000057e-04
-9.651466999999999729e-04
-9.640392999999999706e-04
-9.231318000000000509e-04
-8.601061999999999813e-04
-7.876454999999999654e-04
3.901366999999999878e-04
4.301298999999999964e-04
4.743743000000000026e-04
5.228124999999999483e-04
5.750300999999999546e-04
6.298318999999999489e-04
6.838998000000000212e-04
7.282242000000000402e-04
7.415532000000000070e-04
6.851948999999999540e-04
5.123349000000000132e-04
2.019349000000000035e-04
-2.038375999999999947e-04
-6.078417999999999712e-04
-9.182335999999999493e-04
-1.096984199999999918e-03
-1.157169800000000049e-03
-1.134314300000000084e-03
-1.063713399999999904e-03
-9.714110999999999666e-04
-8.736717999999999654e-04
4.377432999999999802e-04
4.886314000000000326e-04
5.466460000000000242e-04
6.125504999999999622e-04
6.871988000000000315e-04
7.717474999999999899e-04
8.674696999999999660e-04
9.726671000000000102e-04
1.071137200000000069e-03
1.110109900000000056e-03
-6.293359999999999796e-04
-1.091982100000000056e-03
-1.326168699999999987e-03
-1.377961600000000017e-03
-1.319479099999999955e-03
-1.208273099999999977e-03
-1.080049800000000082e-03
-9.537311000000000139e-04
-8.378978999999999724e-04
4.310019000000000111e-04
4.843119999999999804e-04
5.464073000000000497e-04
6.186644000000000258e-04
7.025122000000000397e-04
7.995766999999999979e-04
9.125290000000000311e-04
1.047473799999999993e-03
1.217022299999999998e-03
1.434839100000000070e-03
-1.281064300000000046e-03
-1.581140900000000066e-03
-1.608131799999999896e-03
-1.498928999999999973e-03
-1.339075899999999991e-03
-1.172352999999999893e-03
-1.017892600000000047e-03
-8.822203999999999940e-04
-7.660437000000000192e-04
4.661385000000000094e-04
5.279551000000000166e-04
6.010435999999999860e-04
6.873982000000000486e-04
7.888961000000000107e-04
9.069389000000000183e-04
1.042667300000000045e-03
1.200445299999999956e-03
1.400722600000000066e-03
-1.814684499999999956e-03
-1.797864699999999951e-03
-1.633023400000000076e-03
-1.428253200000000056e-03
-1.229811199999999993e-03
-1.054158400000000054e-03
-9.046708999999999784e-04
-7.795824999999999717e-04
4.971148000000000537e-04
5.666725000000000061e-04
6.499684000000000364e-04
7.497482000000000191e-04
8.685070999999999503e-04
1.007232299999999935e-03
1.163179399999999999e-03
1.328638700000000063e-03
-1.854112300000000093e-03
-1.663932500000000082e-03
-1.441775200000000026e-03
-1.232650899999999938e-03
-1.050988899999999969e-03
-8.984349000000000198e-04
-7.720213000000000075e-04
5.224583000000000525e-04
5.984423000000000216e-04
6.904447000000000405e-04
8.021996999999999895e-04
9.375304000000000320e-04
1.098738199999999996e-03
1.282487599999999894e-03
1.471774099999999946e-03
-1.662534600000000005e-03
-1.536590700000000026e-03
-1.352512400000000078e-03
-1.167143800000000099e-03
-1.001272199999999951e-03
-8.597579000000000376e-04
-7.413508999999999767e-04
5.408763999999999499e-04
6.213874999999999997e-04
7.196906000000000310e-04
8.405794999999999977e-04
9.897981000000001008e-04
1.173230799999999989e-03
1.394296499999999901e-03
-1.242224799999999945e-03
-1.159000400000000010e-03
-1.033935500000000103e-03
-9.061606000000000261e-04
-7.897769999999999704e-04
-6.885427000000000171e-04
-6.021826000000000305e-04
5.514327999999999765e-04
6.340663999999999979e-04
7.353560999999999778e-04
8.607919999999999808e-04
1.017627199999999966e-03
1.215221100000000087e-03
1.465535499999999968e-03
-8.475995999999999747e-04
-8.948275000000000109e-04
-8.513331000000000500e-04
-7.762723000000000453e-04
-6.949623000000000259e-04
-6.177014000000000419e-04
-5.481403000000000143e-04
5.537206999999999719e-04
6.358126000000000186e-04
7.362428999999999979e-04
8.604618999999999549e-04
1.015844899999999995e-03
1.212370499999999894e-03
1.463836899999999917e-03
-4.604119000000000158e-04
-6.149261999999999740e-04
-6.492871999999999793e-04
-6.288132000000000530e-04
-5.856422000000000017e-04
-5.352682999999999790e-04
-4.849302000000000213e-04
5.479569000000000323e-04
6.269447999999999948e-04
7.228010000000000207e-04
8.401889000000000492e-04
9.851722999999999730e-04
1.165379899999999897e-03
1.389677599999999957e-03
1.666332599999999957e-03
2.567976000000000026e-04
-1.586767000000000049e-04
-3.679202999999999814e-04
-4.573806999999999829e-04
-4.819420999999999948e-04
-4.731922000000000060e-04
-4.485426999999999839e-04
5.349473999999999462e-04
6.087154000000000436e-04
6.970458999999999596e-04
8.033782999999999853e-04
9.317563999999999751e-04
1.086363599999999900e-03
1.269889800000000013e-03
1.478818600000000004e-03
1.691169200000000030e-03
9.190364999999999819e-04
3.973609000000000125e-04
3.801749999999999981e-05
-1.783471999999999922e-04
-2.951688000000000055e-04
-3.496142000000000043e-04
-3.672416999999999977e-04
-3.641302999999999923e-04
5.830218000000000293e-04
6.619746999999999828e-04
7.549514999999999698e-04
8.640497000000000021e-04
9.905511999999999564e-04
1.133128900000000047e-03
1.284046999999999966e-03
1.422788300000000020e-03
1.512156200000000028e-03
1.518511400000000086e-03
1.463880799999999925e-03
1.435115000000000045e-03
1.174436799999999895e-03
7.984589999999999526e-04
4.334701000000000157e-04
1.479907999999999994e-04
-4.771240000000000078e-05
-1.697714999999999923e-04
-2.392937999999999890e-04
-2.740517000000000040e-04
-2.868823999999999962e-04
5.520212999999999726e-04
6.208414999999999680e-04
6.999219999999999574e-04
7.899050000000000342e-04
8.902772999999999676e-04
9.980530000000000478e-04
1.105709000000000075e-03
1.199177999999999963e-03
1.259635700000000073e-03
1.275549800000000010e-03
1.260087399999999932e-03
1.240575399999999974e-03
1.209740499999999901e-03
1.115721199999999925e-03
9.272866999999999525e-04
6.751678000000000106e-04
4.183750999999999985e-04
1.998404999999999919e-04
3.496520000000000194e-05
-7.913329999999999670e-05
-1.525940999999999897e-04
-1.963482999999999917e-04
5.765981000000000318e-04
6.424805999999999486e-04
7.151844999999999557e-04
7.933569000000000341e-04
8.737785000000000300e-04
9.505091000000000234e-04
1.014683699999999970e-03
1.056562600000000027e-03
1.070853700000000104e-03
1.061085600000000011e-03
1.033419600000000035e-03
9.820784999999998977e-04
8.892089999999999630e-04
7.461736000000000280e-04
5.679713000000000079e-04
3.834735999999999939e-04
2.177179999999999914e-04
8.357649999999999509e-05
-1.682090000000000017e-05
-8.737920000000000528e-05
-1.341353000000000098e-04
5.856712999999999503e-04
6.436131999999999791e-04
7.038377999999999649e-04
7.634967999999999573e-04
8.182286999999999677e-04
8.624286999999999578e-04
8.905379999999999633e-04
8.991499000000000019e-04
8.879756000000000368e-04
8.572818000000000495e-04
8.038630000000000385e-04
7.221343000000000293e-04
6.113092999999999782e-04
4.802297000000000076e-04
3.441505999999999775e-04
2.176413999999999996e-04
1.099376000000000026e-04
2.437840000000000024e-05
-3.987779999999999960e-05
5.314557999999999609e-04
5.772137999999999792e-04
6.233073999999999473e-04
6.674101000000000426e-04
7.063727999999999804e-04
7.365110000000000233e-04
7.542971000000000528e-04
7.571964999999999729e-04
7.439089000000000292e-04
7.135260000000000257e-04
6.645878999999999936e-04
5.958924999999999465e-04
5.089816999999999519e-04
4.096638999999999793e-04
3.067133999999999898e-04
2.088795000000000116e-04
1.224855999999999916e-04
5.066889999999999865e-05
-6.111700000000000285e-06
5.168532999999999461e-04
5.519690000000000273e-04
5.844535999999999568e-04
6.120200000000000119e-04
6.321410000000000180e-04
6.424163999999999569e-04
6.409448000000000098e-04
6.264527000000000203e-04
5.981104000000000325e-04
5.554190000000000299e-04
4.986663000000000337e-04
4.297974000000000195e-04
3.528277000000000236e-04
2.731926999999999771e-04
1.963846999999999902e-04
1.267176000000000012e-04
6.675690000000000454e-05
4.893363999999999657e-04
5.131447000000000135e-04
5.324375000000000331e-04
5.454283000000000308e-04
5.504305999999999609e-04
5.460585000000000439e-04
5.313388999999999959e-04
5.057377000000000487e-04
4.692284000000000017e-04
4.225259999999999997e-04
3.673824999999999812e-04
3.066446000000000015e-04
2.438777000000000045e-04
1.826855999999999912e-04
1.260555000000000063e-04
4.652333999999999832e-04
4.731832000000000269e-04
4.746053999999999876e-04
4.685188000000000178e-04
4.542546999999999861e-04
4.315284000000000069e-04
4.005214000000000105e-04
3.619938000000000170e-04
3.173730000000000257e-04
2.687101999999999807e-04
2.184444000000000121e-04
3.490380000000000284e-05
-1.384260000000000025e-05
-7.212759999999999701e-05
-1.380608999999999981e-04
-2.082548000000000038e-04
-2.781834999999999972e-04
-3.429500000000000148e-04
1.683764000000000029e-04
1.491037000000000070e-04
1.195246999999999976e-04
7.740829999999999543e-05
2.113080000000000104e-05
-4.950240000000000228e-05
-1.324294999999999964e-04
-2.229547000000000018e-04
-3.142282000000000148e-04
-3.986031000000000123e-04
-4.693693000000000192e-04
-5.221356999999999821e-04
2.305851999999999891e-04
2.247949999999999916e-04
2.100806999999999891e-04
1.829908000000000099e-04
1.395915999999999867e-04
7.624620000000000193e-05
-8.929499999999999802e-06
-1.142559999999999984e-04
-2.332889999999999953e-04
-3.553394000000000084e-04
-4.679730999999999800e-04
-5.604066000000000429e-04
-6.261126999999999795e-04
-6.635884000000000314e-04
-6.754337000000000448e-04
2.835986999999999991e-04
2.923127999999999773e-04
2.954774000000000181e-04
2.896924999999999847e-04
2.700792000000000145e-04
2.301631000000000054e-04
1.626359000000000127e-04
6.172579999999999777e-05
-7.292590000000000595e-05
-2.328379999999999957e-04
-4.007672000000000209e-04
-5.555156000000000113e-04
-6.790032999999999572e-04
-7.614073999999999972e-04
-8.020619000000000533e-04
-8.069448999999999589e-04
-7.850733999999999838e-04
3.234803000000000071e-04
3.451846999999999750e-04
3.654651999999999987e-04
3.821602000000000007e-04
3.916292999999999944e-04
3.877743999999999918e-04
3.608878000000000042e-04
2.974624999999999730e-04
1.832956000000000006e-04
1.144499999999999969e-05
-2.083634000000000115e-04
-4.473565999999999784e-04
-6.673515000000000089e-04
-8.365322000000000339e-04
-9.401152000000000076e-04
-9.806028999999999961e-04
-9.710869000000000011e-04
-9.277483000000000431e-04
-8.650240000000000446e-04
3.804929999999999771e-04
4.143029999999999803e-04
4.496478000000000150e-04
4.851584999999999730e-04
5.180287000000000433e-04
5.423178000000000070e-04
5.457222999999999978e-04
5.058222000000000239e-04
3.913527999999999777e-04
1.768662999999999908e-04
-1.320101999999999918e-04
-4.859614000000000056e-04
-8.116901000000000367e-04
-1.049969399999999909e-03
-1.179159200000000005e-03
-1.211307999999999916e-03
-1.174336000000000000e-03
-1.096767599999999999e-03
-1.000580000000000046e-03
-9.000864999999999821e-04
3.985640000000000146e-04
4.413512999999999768e-04
4.893541000000000384e-04
5.429057000000000154e-04
6.022040999999999896e-04
6.669745000000000361e-04
7.348117999999999837e-04
7.955472999999999581e-04
8.189970000000000193e-04
7.439185000000000502e-04
4.969653999999999565e-04
5.708620000000000241e-05
-4.918868999999999542e-04
-9.984790000000000332e-04
-1.344312600000000055e-03
-1.500869300000000047e-03
-1.506907399999999958e-03
-1.420670099999999996e-03
-1.290714299999999983e-03
-1.148426799999999973e-03
-1.010880999999999932e-03
-8.858457999999999610e-04
4.016927999999999905e-04
4.491790999999999969e-04
5.041352999999999503e-04
5.677874999999999979e-04
6.416183000000000433e-04
7.277199000000000254e-04
8.296287999999999536e-04
9.531226000000000281e-04
1.102237800000000108e-03
1.256339800000000036e-03
-1.235493700000000073e-03
-1.754385399999999935e-03
-1.930179699999999988e-03
-1.874877000000000054e-03
-1.706010100000000026e-03
-1.500824800000000051e-03
-1.299275300000000011e-03
-1.118070199999999939e-03
-9.618737999999999724e-04
4.416822999999999843e-04
4.989000999999999636e-04
5.664665000000000152e-04
6.464338999999999502e-04
7.412166999999999671e-04
8.539962999999999808e-04
9.905223999999998932e-04
1.164723000000000104e-03
1.408286699999999935e-03
-2.480524699999999815e-03
-2.302289300000000000e-03
-2.008154099999999876e-03
-1.705863400000000090e-03
-1.436309599999999968e-03
-1.209422500000000098e-03
-1.022985199999999978e-03
-8.710340000000000226e-04
4.789697000000000095e-04
5.456608999999999852e-04
6.256900999999999609e-04
7.219671000000000421e-04
8.375645000000000139e-04
9.751862000000000247e-04
1.137109799999999919e-03
1.330748400000000007e-03
-3.108776299999999829e-03
-2.725758300000000103e-03
-2.273557600000000040e-03
-1.868082700000000098e-03
-1.534837500000000004e-03
-1.269262200000000019e-03
-1.059307700000000022e-03
-8.929511000000000436e-04
4.495419000000000064e-04
5.118960999999999997e-04
5.872480999999999925e-04
6.789427000000000005e-04
7.909807999999999943e-04
9.274881000000000011e-04
1.090745200000000021e-03
1.275888300000000081e-03
-2.994660799999999956e-03
-2.411782800000000174e-03
-1.936315500000000038e-03
-1.566258100000000094e-03
-1.281480499999999943e-03
-1.061620400000000018e-03
-8.902848000000000315e-04
4.711679000000000193e-04
5.388367000000000243e-04
6.213949000000000295e-04
7.231021000000000237e-04
8.494169999999999889e-04
1.006741200000000084e-03
1.200409599999999926e-03
1.426719400000000040e-03
-2.321797300000000112e-03
-1.863513299999999904e-03
-1.507934799999999893e-03
-1.234831200000000104e-03
-1.024174099999999909e-03
-8.600260999999999887e-04
-7.305405999999999966e-04
4.870006000000000074e-04
5.583581000000000438e-04
6.459744000000000336e-04
7.549151999999999512e-04
8.921606000000000111e-04
1.067200400000000056e-03
1.292055500000000023e-03
1.578010900000000006e-03
-1.963000800000000174e-03
-1.636385599999999954e-03
-1.355883000000000001e-03
-1.128567999999999932e-03
-9.472947999999999482e-04
-8.027873000000000040e-04
-6.868806999999999777e-04
4.963478000000000117e-04
5.694260999999999724e-04
6.593541999999999762e-04
7.716198999999999541e-04
9.141159999999999737e-04
1.098461999999999919e-03
1.342032800000000003e-03
1.670726200000000050e-03
-1.417026899999999923e-03
-1.294898600000000044e-03
-1.131456299999999970e-03
-9.748645000000000444e-04
-8.382869999999999515e-04
-7.231399000000000117e-04
-6.271773999999999492e-04
4.989238000000000223e-04
5.716049999999999864e-04
6.608074999999999713e-04
7.718710999999999628e-04
9.125087000000000476e-04
1.094174600000000046e-03
1.334286399999999985e-03
1.659789799999999895e-03
-8.484334000000000276e-04
-9.168047000000000349e-04
-8.745406999999999530e-04
-7.955587000000000509e-04
-7.097718000000000473e-04
-6.287216000000000419e-04
-5.562391999999999987e-04
5.651617000000000272e-04
6.507490999999999796e-04
7.563160000000000412e-04
8.883870000000000308e-04
1.056230600000000004e-03
1.272993899999999914e-03
1.556680099999999990e-03
1.929516000000000044e-03
6.590899999999999526e-05
-3.912852000000000192e-04
-5.763126000000000360e-04
-6.266722999999999868e-04
-6.146300000000000157e-04
-5.760900000000000222e-04
-5.284096999999999969e-04
5.510146000000000488e-04
6.306448999999999562e-04
7.274020999999999655e-04
8.460985999999999767e-04
9.929959000000000788e-04
1.175809799999999938e-03
1.402533099999999896e-03
1.676236000000000002e-03
3.339002999999999785e-04
-8.944300000000000406e-05
-3.135611999999999753e-04
-4.162161999999999741e-04
-4.508832000000000269e-04
-4.495610000000000144e-04
-4.303328999999999943e-04
5.305486000000000316e-04
6.026522000000000302e-04
6.886155000000000140e-04
7.915242000000000068e-04
9.148582000000000155e-04
1.061890299999999898e-03
1.233854400000000077e-03
1.425125900000000050e-03
1.612259700000000023e-03
8.919171000000000260e-04
4.198302999999999909e-04
8.025849999999999738e-05
-1.330488000000000059e-04
-2.538956000000000090e-04
-3.144835999999999921e-04
-3.382384000000000107e-04
-3.404856000000000050e-04
5.691722000000000187e-04
6.436292000000000142e-04
7.304021999999999641e-04
8.309119999999999484e-04
9.456170000000000504e-04
1.072481300000000014e-03
1.204066900000000037e-03
1.323293599999999896e-03
1.402118599999999929e-03
1.417212499999999896e-03
1.388214999999999935e-03
1.374790199999999935e-03
1.375050000000000057e-03
1.289198199999999931e-03
1.056922100000000104e-03
7.350336999999999756e-04
4.180294999999999996e-04
1.624255999999999920e-04
-1.922670000000000008e-05
-1.371592999999999998e-04
-2.076807999999999920e-04
-2.456231000000000234e-04
-2.622678000000000032e-04
5.956937000000000256e-04
6.673713000000000388e-04
7.476460999999999567e-04
8.355574999999999634e-04
9.280821000000000296e-04
1.018805900000000104e-03
1.096932500000000069e-03
1.148993500000000017e-03
1.166539500000000028e-03
1.155760800000000090e-03
1.130214000000000045e-03
1.083205500000000016e-03
9.838622999999999466e-04
8.158478000000000258e-04
6.019894999999999934e-04
3.842531000000000158e-04
1.950943000000000067e-04
4.807740000000000153e-05
-5.721449999999999914e-05
-1.276900999999999991e-04
-1.717199999999999890e-04
5.473462999999999809e-04
6.056914000000000265e-04
6.689778000000000174e-04
7.357239999999999917e-04
8.030065000000000510e-04
8.659975000000000311e-04
9.180290000000000021e-04
9.520255999999999944e-04
9.635495999999999471e-04
9.528965000000000135e-04
9.216288000000000214e-04
8.655438999999999581e-04
7.755706999999999705e-04
6.493043999999999899e-04
4.985232000000000248e-04
3.435271000000000266e-04
2.024848000000000099e-04
8.566680000000000453e-05
-4.302700000000000326e-06
-6.960690000000000605e-05
-1.145035000000000058e-04
5.473783999999999768e-04
5.968644000000000380e-04
6.472960000000000042e-04
6.962100999999999837e-04
7.401166999999999946e-04
7.747534000000000148e-04
7.958988000000000174e-04
8.005240000000000489e-04
7.872620000000000529e-04
7.552384000000000094e-04
7.024937000000000195e-04
6.269602000000000421e-04
5.300974000000000181e-04
4.190853000000000243e-04
3.048379999999999840e-04
1.978371000000000036e-04
1.051488999999999988e-04
2.979420000000000012e-05
-2.833389999999999989e-05
5.319896999999999864e-04
5.699811999999999631e-04
6.055106999999999894e-04
6.360593000000000106e-04
6.587696000000000090e-04
6.708734999999999525e-04
6.701705000000000509e-04
6.552118000000000005e-04
6.250357999999999695e-04
5.789480999999999534e-04
5.170917999999999608e-04
4.416331000000000119e-04
3.573240000000000097e-04
2.706116000000000164e-04
1.878574999999999950e-04
1.138386000000000047e-04
5.116730000000000052e-05
5.028460000000000438e-04
5.285793000000000436e-04
5.496665999999999662e-04
5.641208000000000420e-04
5.700399000000000308e-04
5.658476999999999865e-04
5.504305000000000352e-04
5.231564000000000179e-04
4.839430000000000251e-04
4.335453999999999979e-04
3.739384000000000111e-04
3.083951000000000249e-04
2.410068999999999981e-04
1.758407999999999987e-04
1.161649999999999966e-04
4.632815000000000197e-04
4.776269000000000196e-04
4.863701000000000005e-04
4.881824000000000103e-04
4.819631999999999801e-04
4.669539000000000220e-04
4.428184000000000156e-04
4.097373999999999981e-04
3.685445000000000084e-04
3.208360999999999960e-04
2.689208000000000223e-04
2.155326999999999905e-04
1.633913000000000021e-04
4.212752999999999745e-04
4.140425999999999785e-04
3.999262000000000064e-04
3.787856999999999943e-04
3.508939999999999781e-04
3.169981000000000101e-04
2.783365000000000210e-04
5.851950000000000104e-05
1.570900000000000155e-05
-3.790950000000000016e-05
-1.017038999999999937e-04
-1.734357999999999972e-04
-2.491988000000000102e-04
-3.238712000000000036e-04
-3.920277000000000006e-04
1.591529000000000056e-04
1.369003999999999946e-04
1.032857999999999997e-04
5.584940000000000097e-05
-7.148699999999999843e-06
-8.576719999999999429e-05
-1.774357000000000061e-04
-2.765693999999999748e-04
-3.752272999999999980e-04
-4.647806000000000203e-04
-5.379389000000000479e-04
-5.902589999999999877e-04
-6.206137999999999499e-04
2.243957000000000037e-04
2.163969000000000016e-04
1.984327999999999884e-04
1.666023000000000092e-04
1.164476000000000064e-04
4.388710000000000202e-05
-5.302299999999999700e-05
-1.719190000000000052e-04
-3.047896999999999933e-04
-4.388322999999999963e-04
-5.596791999999999523e-04
-6.554816999999999892e-04
-7.197611000000000026e-04
-7.519389999999999711e-04
-7.559421000000000413e-04
2.803263999999999864e-04
2.878655000000000038e-04
2.891347999999999748e-04
2.802669000000000254e-04
2.556382999999999746e-04
2.076977000000000087e-04
1.278875999999999917e-04
9.631300000000000435e-06
-1.467627999999999901e-04
-3.299822999999999797e-04
-5.184047000000000004e-04
-6.867584000000000145e-04
-8.149386999999999907e-04
-8.935981999999999649e-04
-9.242545999999999921e-04
-9.155898000000000205e-04
-8.789668999999999954e-04
3.225839000000000202e-04
3.441060999999999816e-04
3.639494999999999753e-04
3.796978000000000224e-04
3.872025000000000185e-04
3.793414000000000269e-04
3.444659999999999779e-04
2.660103999999999832e-04
1.265677000000000045e-04
-8.128159999999999780e-05
-3.426416999999999961e-04
-6.188857000000000299e-04
-8.625466000000000470e-04
-1.037892899999999985e-03
-1.132188600000000106e-03
-1.153271800000000040e-03
-1.119831800000000007e-03
-1.052221299999999988e-03
-9.672914000000000338e-04
3.496352000000000097e-04
3.818006999999999781e-04
4.163180999999999739e-04
4.525229999999999769e-04
4.890069000000000360e-04
5.227536000000000292e-04
5.469939000000000485e-04
5.467469999999999882e-04
4.930651999999999561e-04
3.443214999999999796e-04
6.840889999999999482e-05
-3.199324999999999934e-04
-7.468075000000000017e-04
-1.115848299999999899e-03
-1.360532100000000051e-03
-1.466871499999999971e-03
-1.460308999999999913e-03
-1.380331700000000071e-03
-1.262519599999999912e-03
-1.131938400000000004e-03
-1.003521399999999977e-03
4.012412999999999830e-04
4.454193999999999862e-04
4.953800000000000174e-04
5.517233000000000510e-04
6.151105000000000461e-04
6.860742000000000186e-04
7.632281999999999782e-04
8.355361999999999642e-04
8.624283000000000383e-04
7.527820000000000171e-04
3.991627000000000196e-04
-2.065070999999999866e-04
-9.108601000000000241e-04
-1.500051199999999927e-03
-1.845059200000000090e-03
-1.944771099999999904e-03
-1.871852800000000077e-03
-1.707590599999999920e-03
-1.511036600000000094e-03
-1.316001999999999927e-03
-1.138264200000000011e-03
-9.831561000000000380e-04
4.049082000000000072e-04
4.540602000000000136e-04
5.114288999999999511e-04
5.786126999999999633e-04
6.577189999999999686e-04
7.520266000000000277e-04
8.676859999999999998e-04
1.016468300000000075e-03
1.212821999999999902e-03
-2.119764200000000178e-03
-2.598549300000000013e-03
-2.631368099999999849e-03
-2.413608800000000085e-03
-2.103992399999999978e-03
-1.790405400000000041e-03
-1.509816200000000047e-03
-1.272280200000000050e-03
-1.076155600000000068e-03
4.465116999999999893e-04
5.061434000000000506e-04
5.772807000000000242e-04
6.625901999999999703e-04
7.654765999999999480e-04
8.908667000000000539e-04
1.048383200000000022e-03
1.263538700000000053e-03
-3.596919000000000071e-03
-3.090009500000000069e-03
-2.549451800000000160e-03
-2.077247700000000186e-03
-1.694002700000000030e-03
-1.391339300000000003e-03
-1.153937100000000096e-03
-9.671817999999999561e-04
4.273955999999999979e-04
4.853918000000000035e-04
5.552664000000000341e-04
6.400903000000000538e-04
7.436759000000000468e-04
8.704728000000000118e-04
1.025070500000000058e-03
1.211869300000000069e-03
-4.844869299999999580e-03
-3.835722900000000050e-03
-2.979584099999999999e-03
-2.324873400000000007e-03
-1.838088799999999931e-03
-1.476319899999999899e-03
-1.204626600000000079e-03
-9.975908999999998951e-04
4.548193000000000179e-04
5.197688999999999695e-04
5.990261000000000413e-04
6.967101000000000500e-04
8.181087000000000298e-04
9.694118999999999740e-04
1.155602400000000068e-03
1.371826899999999908e-03
-4.442977100000000332e-03
-3.269897400000000044e-03
-2.464280799999999955e-03
-1.904462300000000097e-03
-1.506550400000000083e-03
-1.216648899999999952e-03
-1.000376600000000074e-03
4.772665999999999953e-04
5.478949000000000319e-04
6.349487000000000013e-04
7.436661999999999917e-04
8.812664999999999691e-04
1.057420899999999978e-03
1.283446300000000038e-03
-3.262903199999999792e-03
-2.425064099999999813e-03
-1.860488900000000076e-03
-1.466313099999999939e-03
-1.182160000000000025e-03
-9.715032000000000398e-04
-8.114923000000000232e-04
4.936832999999999630e-04
5.682320000000000036e-04
6.607152000000000467e-04
7.773212000000000481e-04
9.271754000000000540e-04
1.124225099999999998e-03
1.390634599999999955e-03
-2.867434700000000107e-03
-2.176491100000000050e-03
-1.695743700000000012e-03
-1.352321799999999918e-03
-1.100422900000000079e-03
-9.111139000000000520e-04
-7.657293000000000346e-04
5.033407999999999632e-04
5.796829999999999995e-04
6.745712999999999970e-04
7.946362000000000000e-04
9.499849999999999788e-04
1.156939399999999977e-03
1.443846400000000068e-03
-2.164623100000000102e-03
-1.760274100000000074e-03
-1.432960199999999901e-03
-1.177609200000000102e-03
-9.792498000000000175e-04
-8.240801999999999980e-04
-7.013555999999999567e-04
5.059488000000000440e-04
5.818076999999999624e-04
6.757847999999999676e-04
7.942510999999999755e-04
9.468595000000000440e-04
1.148983099999999940e-03
1.426413799999999912e-03
1.823848600000000080e-03
-1.379242699999999947e-03
-1.276955800000000030e-03
-1.121428299999999937e-03
-9.682121000000000130e-04
-8.332717999999999592e-04
-7.190617000000000276e-04
-6.237270999999999527e-04
5.017030000000000448e-04
5.749251999999999618e-04
6.648800999999999973e-04
7.770636000000000253e-04
9.194973000000000165e-04
1.104249999999999980e-03
1.349865000000000006e-03
1.684617700000000037e-03
-7.222364000000000431e-04
-8.308544000000000389e-04
-8.154300000000000177e-04
-7.539066999999999557e-04
-6.796397999999999502e-04
-6.063769000000000320e-04
-5.392949000000000397e-04
5.600435999999999652e-04
6.434995999999999468e-04
7.458920999999999867e-04
8.730956000000000437e-04
1.033220500000000012e-03
1.237312800000000016e-03
1.499603499999999914e-03
1.835676700000000083e-03
1.730997000000000124e-04
-2.798742000000000113e-04
-4.828114000000000103e-04
-5.534887000000000053e-04
-5.586197000000000211e-04
-5.333484999999999572e-04
-4.956043999999999944e-04
5.386502999999999951e-04
6.139856000000000393e-04
7.045680000000000345e-04
8.141917999999999725e-04
9.474906000000000387e-04
1.109684199999999956e-03
1.305422400000000012e-03
1.535071800000000104e-03
3.506695000000000211e-04
-2.802350000000000029e-05
-2.428422999999999975e-04
-3.509736000000000171e-04
-3.955625000000000265e-04
-4.043192000000000032e-04
-3.938673999999999756e-04
5.788972000000000518e-04
6.570228000000000006e-04
7.489306999999999952e-04
8.567104000000000299e-04
9.818364999999999905e-04
1.123777999999999973e-03
1.276937500000000078e-03
1.424524799999999985e-03
1.530769699999999988e-03
1.163174199999999960e-03
7.580781999999999885e-04
3.818229000000000132e-04
9.788730000000000044e-05
-9.100149999999999938e-05
-2.053174000000000004e-04
-2.678913000000000214e-04
-2.969356999999999834e-04
-3.052346000000000269e-04
5.406248000000000217e-04
6.066771999999999790e-04
6.821762000000000095e-04
7.676094999999999967e-04
8.624721000000000123e-04
9.642436000000000323e-04
1.066750800000000046e-03
1.158253799999999986e-03
1.221779600000000082e-03
1.243888000000000068e-03
1.231457700000000060e-03
1.206928599999999895e-03
1.163851899999999908e-03
1.055757899999999923e-03
8.589274999999999514e-04
6.082566000000000405e-04
3.605134999999999763e-04
1.537336999999999948e-04
-1.815000000000000040e-07
-1.054702000000000054e-04
-1.723371999999999871e-04
-2.113055999999999984e-04
-2.310674000000000029e-04
5.561668999999999554e-04
6.172907999999999954e-04
6.841564000000000282e-04
7.554470000000000195e-04
8.283306999999999736e-04
8.978178999999999544e-04
9.565261000000000033e-04
9.959623999999998954e-04
1.010260299999999906e-03
9.997382999999999010e-04
9.671210999999999653e-04
9.073517999999999818e-04
8.080865999999999483e-04
6.660229999999999623e-04
4.967819999999999745e-04
3.258102999999999932e-04
1.741028000000000096e-04
5.203300000000000140e-05
-3.907760000000000004e-05
-1.029466999999999947e-04
-1.450618999999999943e-04
5.563082000000000010e-04
6.082336000000000036e-04
6.615968000000000283e-04
7.138920999999999678e-04
7.614320999999999633e-04
7.995241999999999844e-04
8.233128000000000364e-04
8.291786999999999899e-04
8.155047000000000120e-04
7.813507000000000135e-04
7.243444999999999832e-04
6.418247999999999879e-04
5.355286999999999808e-04
4.142312999999999789e-04
2.908761999999999849e-04
1.772917999999999955e-04
8.085740000000000277e-05
4.180200000000000228e-06
-5.353750000000000029e-05
5.002617999999999475e-04
5.403874999999999824e-04
5.802481999999999649e-04
6.178076000000000444e-04
6.503903999999999588e-04
6.748820000000000209e-04
6.881860000000000277e-04
6.877876000000000215e-04
6.720154000000000101e-04
6.397581999999999965e-04
5.901902000000000537e-04
5.234490000000000497e-04
4.420649000000000236e-04
3.515732000000000037e-04
2.593350000000000234e-04
1.723778000000000083e-04
9.572269999999999748e-05
3.186729999999999896e-05
-1.882589999999999877e-05
4.804146000000000132e-04
5.101326000000000428e-04
5.370671000000000472e-04
5.592703000000000518e-04
5.745966000000000138e-04
5.809571000000000353e-04
5.765946000000000309e-04
5.602536000000000191e-04
5.312151999999999890e-04
4.893807000000000018e-04
4.356057000000000093e-04
3.721366999999999839e-04
3.026700999999999806e-04
2.317565999999999962e-04
1.638141000000000076e-04
1.022732000000000019e-04
4.690652000000000233e-04
4.839916999999999895e-04
4.931074000000000351e-04
4.949724000000000181e-04
4.883819999999999871e-04
4.724983999999999890e-04
4.469485000000000255e-04
4.119343000000000245e-04
3.683865999999999942e-04
3.180831999999999974e-04
2.635752000000000103e-04
2.078470999999999975e-04
1.538154999999999980e-04
4.263383999999999837e-04
4.253715000000000252e-04
4.177103000000000044e-04
4.028305000000000254e-04
3.805813000000000013e-04
3.512647000000000252e-04
3.157022000000000213e-04
2.752500999999999754e-04
2.317111999999999915e-04
4.063679999999999690e-05
-6.015599999999999630e-06
-6.399760000000000539e-05
-1.324719999999999880e-04
-2.088558999999999869e-04
-2.887968000000000197e-04
-3.667160999999999837e-04
-4.368330000000000238e-04
-4.943187000000000145e-04
1.460349000000000000e-04
1.204514999999999969e-04
8.258990000000000016e-05
2.988519999999999976e-05
-3.937220000000000227e-05
-1.249788999999999902e-04
-2.238116999999999971e-04
-3.294918000000000087e-04
-4.332242000000000254e-04
-5.257178999999999628e-04
-5.994038000000000361e-04
-6.499842000000000033e-04
-6.767948000000000410e-04
2.134143000000000075e-04
2.024247000000000069e-04
1.803991000000000123e-04
1.431003000000000028e-04
8.575090000000000598e-05
4.118599999999999835e-06
-1.034862000000000054e-04
-2.338266000000000086e-04
-3.774140999999999954e-04
-5.197490000000000139e-04
-6.451519000000000394e-04
-7.413015000000000446e-04
-8.021340000000000284e-04
-8.280706999999999998e-04
-8.242133999999999919e-04
2.717043999999999731e-04
2.769320000000000245e-04
2.749257999999999758e-04
2.613568000000000249e-04
2.299625999999999927e-04
1.724135000000000121e-04
7.945940000000000023e-05
-5.554259999999999910e-05
-2.310078000000000077e-04
-4.327431999999999872e-04
-6.354826000000000268e-04
-8.111582000000000427e-04
-9.388822000000000010e-04
-1.010496299999999936e-03
-1.029772499999999933e-03
-1.007721999999999958e-03
-9.575195000000000537e-04
3.161484999999999903e-04
3.361560999999999781e-04
3.538306000000000068e-04
3.663663999999999961e-04
3.689710000000000017e-04
3.534659999999999799e-04
3.065674000000000220e-04
2.095924000000000094e-04
4.356610000000000289e-05
-1.976508000000000084e-04
-4.932698000000000117e-04
-7.960187000000000295e-04
-1.051916499999999916e-03
-1.224119000000000075e-03
-1.303428099999999956e-03
-1.302985999999999901e-03
-1.246151899999999903e-03
-1.156338899999999901e-03
-1.051920499999999979e-03
3.449608999999999857e-04
3.763104999999999879e-04
4.097093999999999910e-04
4.442963999999999768e-04
4.783068999999999927e-04
5.080612000000000409e-04
5.254720000000000267e-04
5.128083000000000077e-04
4.358055999999999801e-04
2.456372999999999868e-04
-9.196070000000000199e-05
-5.497303000000000042e-04
-1.030319000000000026e-03
-1.420515499999999969e-03
-1.653518699999999893e-03
-1.726449199999999977e-03
-1.677659800000000020e-03
-1.555867299999999943e-03
-1.401357300000000096e-03
-1.240662999999999922e-03
-1.088454900000000074e-03
3.975078000000000162e-04
4.413260000000000230e-04
4.908741000000000103e-04
5.467093999999999600e-04
6.094114000000000518e-04
6.793689999999999798e-04
7.547892999999999530e-04
8.225188000000000031e-04
8.323602999999999731e-04
-5.727576000000000065e-04
-1.399561199999999972e-03
-2.025156599999999949e-03
-2.330780100000000212e-03
-2.352177699999999805e-03
-2.193704400000000016e-03
-1.953566700000000135e-03
-1.696224899999999956e-03
-1.454973200000000098e-03
-1.242974599999999976e-03
4.022879000000000147e-04
4.515062000000000242e-04
5.091419000000000456e-04
5.769381999999999983e-04
6.572595999999999777e-04
7.539107000000000187e-04
8.743613000000000340e-04
1.034104500000000053e-03
-3.105109100000000028e-03
-3.450119399999999892e-03
-3.290768700000000144e-03
-2.895978100000000041e-03
-2.448463200000000183e-03
-2.035326699999999867e-03
-1.685155299999999915e-03
-1.399422499999999946e-03
-1.169795400000000086e-03
4.447682000000000220e-04
5.049221999999999478e-04
5.770778000000000062e-04
6.642745999999999503e-04
7.706005000000000363e-04
9.023399999999999564e-04
1.072402899999999951e-03
-5.365593600000000303e-03
-4.683477600000000331e-03
-3.810765600000000017e-03
-3.024667600000000185e-03
-2.394435900000000186e-03
-1.910128600000000074e-03
-1.542130700000000085e-03
-1.261694399999999973e-03
-1.045969699999999914e-03
4.260169000000000174e-04
4.845383999999999889e-04
5.554034999999999484e-04
6.420345999999999735e-04
7.488915999999999976e-04
8.816355999999999585e-04
1.047116199999999914e-03
1.253859900000000053e-03
-6.617383499999999856e-03
-4.882363800000000080e-03
-3.611955699999999832e-03
-2.720548199999999785e-03
-2.095102800000000001e-03
-1.649354000000000011e-03
-1.324995800000000092e-03
-1.083810300000000041e-03
4.540001999999999905e-04
5.197325000000000252e-04
6.003964999999999563e-04
7.005988999999999576e-04
8.265726000000000150e-04
9.864139000000000934e-04
1.188953400000000108e-03
-5.864678400000000041e-03
-4.059440400000000233e-03
-2.930457799999999866e-03
-2.195255100000000157e-03
-1.696770000000000006e-03
-1.346240999999999974e-03
-1.091783899999999906e-03
4.769196999999999868e-04
5.485238000000000353e-04
6.372860000000000373e-04
7.490301999999999898e-04
8.921788000000000374e-04
1.079147400000000055e-03
1.328349699999999958e-03
-6.271565100000000247e-03
-4.158963800000000169e-03
-2.933241100000000094e-03
-2.169301599999999986e-03
-1.664827200000000085e-03
-1.315797199999999912e-03
-1.064978199999999913e-03
4.936890999999999892e-04
5.693213000000000136e-04
6.636571999999999654e-04
7.834947000000000526e-04
9.392565000000000289e-04
1.148117400000000067e-03
1.442156599999999981e-03
-3.764823599999999812e-03
-2.680090300000000092e-03
-2.000268099999999959e-03
-1.547666899999999932e-03
-1.231842500000000090e-03
-1.003049700000000020e-03
-8.321716000000000269e-04
5.035673000000000059e-04
5.810121000000000339e-04
6.777350999999999818e-04
8.009137000000000157e-04
9.617983000000000305e-04
1.179529099999999942e-03
1.491041800000000080e-03
-2.942321600000000117e-03
-2.209489499999999981e-03
-1.710348700000000012e-03
-1.358342999999999920e-03
-1.102296499999999959e-03
-9.109642999999999951e-04
-7.646153999999999841e-04
5.062709999999999780e-04
5.831776000000000321e-04
6.788445000000000156e-04
8.000713999999999916e-04
9.573417999999999555e-04
1.167867400000000087e-03
1.462196499999999979e-03
-1.961705099999999820e-03
-1.638370000000000104e-03
-1.355384700000000081e-03
-1.125759100000000082e-03
-9.431453999999999706e-04
-7.980653000000000313e-04
-6.820634000000000332e-04
5.020168000000000416e-04
5.761822000000000211e-04
6.676113999999999486e-04
7.821065999999999565e-04
9.282258000000000262e-04
1.119062699999999900e-03
1.375349899999999976e-03
1.730576300000000048e-03
-1.108708900000000006e-03
-1.097426199999999939e-03
-1.000105199999999899e-03
-8.842385999999999606e-04
-7.736792999999999839e-04
-6.757456000000000443e-04
-5.915370000000000524e-04
5.610860999999999540e-04
6.457793999999999991e-04
7.500456999999999871e-04
8.801044999999999962e-04
1.044676999999999932e-03
1.256076700000000089e-03
1.531938700000000072e-03
-5.189968000000000315e-04
-6.682720999999999540e-04
-6.923129999999999562e-04
-6.621040999999999819e-04
-6.110923000000000310e-04
-5.547402000000000322e-04
-4.999294000000000047e-04
5.394211000000000318e-04
6.157648000000000375e-04
7.078355999999999624e-04
8.196638999999999705e-04
9.562994000000000008e-04
1.123844699999999950e-03
1.329265199999999899e-03
1.579819000000000102e-03
2.076352000000000005e-04
-1.744023999999999889e-04
-3.686001999999999747e-04
-4.523867000000000101e-04
-4.754871999999999831e-04
-4.669747000000000134e-04
-4.431346000000000178e-04
5.801715999999999731e-04
6.594546999999999866e-04
7.530428000000000469e-04
8.633096000000000259e-04
9.922922999999999726e-04
1.140687200000000106e-03
1.305492799999999950e-03
1.473902800000000081e-03
7.100767000000000450e-04
2.971909000000000009e-04
5.533099999999999591e-06
-1.764062000000000052e-04
-2.786595999999999908e-04
-3.287217999999999737e-04
-3.466241000000000005e-04
-3.456244000000000243e-04
5.414174000000000113e-04
6.083434000000000411e-04
6.850854000000000188e-04
7.723069999999999631e-04
8.698067000000000082e-04
9.755856000000000467e-04
1.084218500000000028e-03
1.184431899999999985e-03
1.257826500000000037e-03
1.286582400000000010e-03
1.274860100000000090e-03
1.248712799999999968e-03
1.201123799999999960e-03
1.076216700000000087e-03
8.501620000000000097e-04
5.709543999999999557e-04
3.055366999999999914e-04
9.277170000000000490e-05
-5.925009999999999706e-05
-1.587163999999999903e-04
-2.184605000000000000e-04
-2.504068999999999826e-04
-2.638617000000000219e-04
5.571521999999999543e-04
6.191563999999999662e-04
6.872446000000000371e-04
7.602374000000000067e-04
8.354798000000000302e-04
9.081224999999999844e-04
9.706477999999999938e-04
1.013794699999999958e-03
1.030340899999999905e-03
1.019566499999999916e-03
9.839065000000000571e-04
9.175494999999999875e-04
8.071260999999999497e-04
6.507232000000000380e-04
4.679683000000000237e-04
2.877639999999999777e-04
1.320236999999999875e-04
1.011549999999999997e-05
-7.822299999999999967e-05
-1.380647999999999999e-04
-1.758011000000000133e-04
5.077207000000000464e-04
5.572984999999999701e-04
6.100110999999999641e-04
6.644068000000000369e-04
7.180142999999999942e-04
7.671174000000000222e-04
8.068428000000000535e-04
8.319243000000000471e-04
8.381568000000000048e-04
8.233720999999999835e-04
7.862484999999999787e-04
7.241895999999999620e-04
6.347005000000000398e-04
5.204911000000000216e-04
3.919304999999999773e-04
2.633385999999999930e-04
1.470812999999999906e-04
5.028309999999999974e-05
-2.509380000000000020e-05
-8.052710000000000358e-05
-1.191338000000000011e-04
5.005463000000000360e-04
5.411409999999999745e-04
5.815784000000000491e-04
6.198064000000000091e-04
6.530871000000000376e-04
6.781660000000000119e-04
6.917136000000000378e-04
6.909197999999999642e-04
6.738321000000000024e-04
6.391552000000000431e-04
5.860516999999999983e-04
5.149142999999999906e-04
4.288394000000000060e-04
3.341029999999999825e-04
2.386958000000000059e-04
1.499454999999999961e-04
7.282490000000000133e-05
9.561299999999999411e-06
-3.982390000000000338e-05
4.803995000000000140e-04
5.103968000000000393e-04
5.376145000000000142e-04
5.600472000000000002e-04
5.754533999999999951e-04
5.816092999999999610e-04
5.766045000000000458e-04
5.590493999999999672e-04
5.281586000000000223e-04
4.838795000000000010e-04
4.272578000000000075e-04
3.608619000000000084e-04
2.887658999999999994e-04
2.158395000000000127e-04
1.466727000000000026e-04
8.470340000000000627e-05
3.186860000000000181e-05
4.686487000000000248e-04
4.835584999999999883e-04
4.925183999999999769e-04
4.940116999999999512e-04
4.867547999999999970e-04
4.698505999999999972e-04
4.429114000000000163e-04
4.061908000000000142e-04
3.607460000000000050e-04
3.085405999999999847e-04
2.523310000000000071e-04
1.952757000000000115e-04
1.403932999999999895e-04
4.249152999999999871e-04
4.235396999999999795e-04
4.152736999999999878e-04
3.995695999999999970e-04
3.762816999999999789e-04
3.457550999999999789e-04
3.088931999999999854e-04
2.671624999999999955e-04
2.224834999999999985e-04
2.085110000000000099e-05
-2.908749999999999891e-05
-9.052420000000000312e-05
-1.623859999999999865e-04
-2.417894999999999929e-04
-3.240704999999999866e-04
-4.033991000000000117e-04
-4.738640999999999817e-04
-5.306530999999999965e-04
1.295041999999999992e-04
1.004675000000000067e-04
5.848429999999999840e-05
1.041899999999999926e-06
-7.337070000000000549e-05
-1.641736000000000031e-04
-2.677174000000000264e-04
-3.770501999999999903e-04
-4.829103000000000171e-04
-5.757804000000000481e-04
-6.481539999999999611e-04
-6.960345999999999851e-04
-7.191855999999999943e-04
1.979422999999999903e-04
1.833430000000000097e-04
1.567111000000000046e-04
1.136493999999999965e-04
4.935169999999999710e-05
-4.018389999999999994e-05
-1.560495999999999975e-04
-2.940522000000000101e-04
-4.435907000000000218e-04
-5.892466999999999974e-04
-7.149319000000000117e-04
-8.085243999999999461e-04
-8.646167999999999649e-04
-8.844725000000000330e-04
-8.739811999999999798e-04
2.578580000000000238e-04
2.597073000000000198e-04
2.531715999999999936e-04
2.335186999999999907e-04
1.940591999999999936e-04
1.261752000000000045e-04
2.076049999999999884e-05
-1.279184000000000050e-04
-3.164789999999999899e-04
-5.284272000000000014e-04
-7.365533999999999536e-04
-9.120226999999999848e-04
-1.034551999999999998e-03
-1.097489899999999977e-03
-1.106323300000000088e-03
-1.073484900000000073e-03
-1.013091999999999942e-03
3.041650999999999925e-04
3.213115000000000220e-04
3.350655999999999925e-04
3.421014999999999907e-04
3.368684999999999952e-04
3.102046999999999812e-04
2.478377000000000141e-04
1.306966999999999916e-04
-5.901909999999999877e-05
-3.239917000000000036e-04
-6.383065000000000050e-04
-9.501979000000000458e-04
-1.204188500000000087e-03
-1.365303000000000003e-03
-1.428001099999999957e-03
-1.409014600000000087e-03
-1.334234400000000034e-03
-1.228432100000000039e-03
-1.110467900000000055e-03
3.347770000000000238e-04
3.638687999999999948e-04
3.942093999999999937e-04
4.244960999999999895e-04
4.522059999999999730e-04
4.723759000000000118e-04
4.748991000000000150e-04
4.393687000000000070e-04
3.291850999999999935e-04
9.602690000000000043e-05
-2.878754999999999986e-04
-7.828422999999999502e-04
-1.279845900000000031e-03
-1.662667899999999924e-03
-1.870609500000000027e-03
-1.910198600000000092e-03
-1.827400500000000028e-03
-1.675176299999999894e-03
-1.495350600000000096e-03
-1.314450800000000049e-03
-1.146475799999999937e-03
3.871603999999999736e-04
4.287183999999999982e-04
4.752143000000000014e-04
5.267289000000000519e-04
5.829189999999999936e-04
6.423315999999999878e-04
6.996030000000000304e-04
7.354363000000000046e-04
6.915193999999999508e-04
-1.834325699999999953e-03
-2.434803699999999946e-03
-2.680021700000000118e-03
-2.631273700000000184e-03
-2.408674899999999845e-03
-2.116283599999999824e-03
-1.818796900000000001e-03
-1.547580200000000074e-03
-1.313475599999999917e-03
3.936335999999999915e-04
4.411740999999999948e-04
4.966738000000000489e-04
5.616845999999999992e-04
6.382182999999999606e-04
7.293192999999999681e-04
8.405993000000000276e-04
9.828360999999999868e-04
-3.849886500000000017e-03
-4.038974300000000399e-03
-3.725648099999999841e-03
-3.207674299999999871e-03
-2.670292600000000096e-03
-2.194084700000000030e-03
-1.800169899999999991e-03
-1.484034099999999995e-03
-1.233075099999999960e-03
4.361661000000000184e-04
4.947400000000000235e-04
5.649757000000000260e-04
6.498702000000000515e-04
7.535076000000000360e-04
8.822189000000000246e-04
1.048803500000000015e-03
-6.402970899999999889e-03
-5.372062700000000170e-03
-4.262025000000000015e-03
-3.323652800000000129e-03
-2.596713699999999864e-03
-2.050351399999999873e-03
-1.641771999999999893e-03
-1.334199899999999979e-03
4.187635000000000099e-04
4.760392000000000009e-04
5.454227999999999984e-04
6.303469000000000346e-04
7.353976000000000349e-04
8.667037999999999739e-04
1.032571099999999957e-03
1.245845399999999902e-03
-7.705113100000000013e-03
-5.522827899999999991e-03
-4.004200999999999767e-03
-2.970939900000000005e-03
-2.261299500000000205e-03
-1.763632700000000025e-03
-1.406085100000000095e-03
-1.142969699999999995e-03
4.468272000000000238e-04
5.113452999999999575e-04
5.905764000000000196e-04
6.891573999999999487e-04
8.135132000000000431e-04
9.724571999999999904e-04
1.177314999999999959e-03
-1.048603910000000042e-02
-6.731403399999999655e-03
-4.550118899999999571e-03
-3.227098600000000064e-03
-2.384670900000000066e-03
-1.823399299999999956e-03
-1.434241800000000001e-03
-1.154987500000000068e-03
4.698406999999999822e-04
5.402325999999999613e-04
6.275309000000000399e-04
7.375326000000000408e-04
8.787105999999999823e-04
1.063856200000000028e-03
1.313167199999999918e-03
-7.347525199999999784e-03
-4.729934400000000011e-03
-3.264100600000000019e-03
-2.374584299999999999e-03
-1.799349700000000022e-03
-1.407965699999999976e-03
-1.130497399999999975e-03
4.867178999999999906e-04
5.611155000000000049e-04
6.538908000000000177e-04
7.716930999999999791e-04
9.246725000000000343e-04
1.129481799999999944e-03
1.417414000000000087e-03
-6.812184399999999911e-03
-4.367519499999999999e-03
-3.022215400000000107e-03
-2.209775699999999999e-03
-1.683807600000000043e-03
-1.324612200000000036e-03
-1.068761500000000057e-03
4.967294000000000353e-04
5.729138000000000373e-04
6.679681000000000464e-04
7.887916000000000458e-04
9.460236000000000339e-04
1.157347900000000067e-03
1.456098799999999910e-03
-3.508877000000000090e-03
-2.534048599999999887e-03
-1.910466100000000021e-03
-1.489110600000000074e-03
-1.191824300000000067e-03
-9.746334999999999851e-04
-8.113436999999999819e-04
4.996081999999999780e-04
5.752511999999999990e-04
6.691940000000000171e-04
7.878826000000000449e-04
9.410156000000000033e-04
1.143934299999999982e-03
1.422487000000000057e-03
-2.434152800000000030e-03
-1.920378799999999985e-03
-1.534193500000000055e-03
-1.244976299999999954e-03
-1.026004799999999904e-03
-8.576815999999999910e-04
-7.262211000000000187e-04
4.955826000000000415e-04
5.685215999999999881e-04
6.582625000000000151e-04
7.702587000000000322e-04
9.123274999999999484e-04
1.095911900000000067e-03
1.337941899999999917e-03
1.663088500000000020e-03
-1.463644100000000090e-03
-1.323980499999999946e-03
-1.150478500000000088e-03
-9.878311000000000296e-04
-8.474456000000000436e-04
-7.298094000000000196e-04
-6.321633999999999587e-04
5.537883999999999645e-04
6.369194999999999588e-04
7.389242999999999549e-04
8.654672000000000406e-04
1.024160899999999961e-03
1.225128700000000046e-03
1.481997899999999962e-03
-7.669655999999999739e-04
-8.397342999999999604e-04
-8.127529000000000090e-04
-7.485767999999999849e-04
-6.746054000000000243e-04
-6.024090000000000391e-04
-5.364230999999999904e-04
5.325635999999999912e-04
6.075298000000000460e-04
6.976852000000000401e-04
8.067156000000000457e-04
9.390794000000000268e-04
1.099944100000000086e-03
1.295136099999999934e-03
1.531887000000000006e-03
-9.004700000000000369e-06
-3.415045000000000233e-04
-4.936883000000000417e-04
-5.456449999999999842e-04
-5.455332999999999493e-04
-5.202371000000000339e-04
-4.842064999999999998e-04
5.726257000000000222e-04
6.503553000000000242e-04
7.418283000000000342e-04
8.491666000000000361e-04
9.741325000000000114e-04
1.117366199999999914e-03
1.276743799999999944e-03
1.442682000000000036e-03
5.639930999999999721e-04
1.634953000000000133e-04
-1.064522999999999972e-04
-2.662836000000000131e-04
-3.495273000000000238e-04
-3.843712000000000105e-04
-3.904627000000000249e-04
-3.804006000000000184e-04
5.345619000000000022e-04
6.002533000000000217e-04
6.754241000000000238e-04
7.606572000000000463e-04
8.557283999999999637e-04
9.588151999999999743e-04
1.065119999999999912e-03
1.164676599999999894e-03
1.240701600000000075e-03
1.275413100000000015e-03
1.268382200000000041e-03
1.236461699999999919e-03
1.167998800000000009e-03
1.015693299999999907e-03
7.689761000000000252e-04
4.820102999999999953e-04
2.198938000000000054e-04
1.660269999999999945e-05
-1.239175000000000075e-04
-2.122476000000000039e-04
-2.622440000000000188e-04
-2.860804999999999793e-04
-2.929596000000000131e-04
5.499675000000000093e-04
6.107924000000000036e-04
6.774889000000000518e-04
7.489153999999999820e-04
8.225612000000000418e-04
8.938818999999999975e-04
9.557841000000000297e-04
9.992397999999999125e-04
1.016401699999999915e-03
1.004520199999999917e-03
9.634017000000000362e-04
8.866126999999999689e-04
7.637749999999999574e-04
5.974614000000000053e-04
4.100242999999999835e-04
2.303822999999999982e-04
7.886430000000000317e-05
-3.698650000000000239e-05
-1.188000999999999944e-04
-1.724468999999999904e-04
-2.046832000000000057e-04
5.013212999999999871e-04
5.499895000000000304e-04
6.016754000000000026e-04
6.549614999999999734e-04
7.074531999999999913e-04
7.555491999999999590e-04
7.944696000000000006e-04
8.188731000000000525e-04
8.241222000000000087e-04
8.072424000000000353e-04
7.661658000000000227e-04
6.983711999999999993e-04
6.025829000000000341e-04
4.832309000000000018e-04
3.519001000000000225e-04
2.231568999999999979e-04
1.088618000000000018e-04
1.534789999999999920e-05
-5.614990000000000259e-05
-1.076291000000000026e-04
-1.425146000000000128e-04
4.940965000000000287e-04
5.338920000000000037e-04
5.734741999999999921e-04
6.108223000000000081e-04
6.432289000000000105e-04
6.674340999999999868e-04
6.800130999999999624e-04
6.779314000000000260e-04
6.589344999999999708e-04
6.215352999999999850e-04
5.650492999999999705e-04
4.904263999999999976e-04
4.014981999999999839e-04
3.051061000000000094e-04
2.094323000000000040e-04
1.216483999999999990e-04
4.638090000000000176e-05
-1.452030000000000055e-05
-6.134859999999999738e-05
4.740130999999999967e-04
5.033146999999999534e-04
5.297976999999999504e-04
5.514577000000000107e-04
5.660303000000000209e-04
5.712293000000000232e-04
5.650416999999999810e-04
5.459742000000000284e-04
5.132131999999999536e-04
4.668286000000000115e-04
4.081442000000000013e-04
3.400721999999999795e-04
2.669634000000000265e-04
1.938076999999999910e-04
1.251508999999999879e-04
6.427580000000000554e-05
1.292309999999999999e-05
4.617687000000000094e-04
4.760065000000000173e-04
4.842278999999999789e-04
4.848831999999999860e-04
4.766476000000000068e-04
4.585956999999999772e-04
4.303560000000000111e-04
3.922670999999999970e-04
3.455347000000000106e-04
2.922956000000000209e-04
2.354489999999999882e-04
1.782247999999999949e-04
1.236324000000000125e-04
4.176248000000000135e-04
4.155529000000000037e-04
4.065086000000000198e-04
3.899436000000000048e-04
3.657361999999999831e-04
3.342881000000000021e-04
2.965867999999999977e-04
2.541918000000000216e-04
2.091004999999999947e-04
3.315999999999999782e-07
-5.201420000000000083e-05
-1.156368000000000039e-04
-1.892270999999999895e-04
-2.696878000000000101e-04
-3.522239000000000142e-04
-4.309960999999999849e-04
-5.002036999999999759e-04
-5.552239999999999953e-04
1.104386000000000034e-04
7.815200000000000662e-05
3.260289999999999917e-05
-2.850750000000000107e-05
-1.063431000000000017e-04
-1.998881999999999948e-04
-3.050799999999999996e-04
-4.147148000000000024e-04
-5.195313999999999705e-04
-6.102526999999999518e-04
-6.797511999999999912e-04
-7.244206000000000213e-04
1.787614999999999994e-04
1.602699000000000018e-04
1.289750000000000044e-04
8.054349999999999888e-05
1.046219999999999954e-05
-8.467499999999999821e-05
-2.051140000000000016e-04
-3.458070999999999845e-04
-4.956356000000000086e-04
-6.392289000000000217e-04
-7.610584999999999573e-04
-8.497980999999999504e-04
-9.007725000000000497e-04
-9.157475999999999464e-04
-9.008694000000000250e-04
2.394216999999999916e-04
2.371193000000000118e-04
2.252598999999999877e-04
1.988596000000000027e-04
1.511307999999999998e-04
7.377250000000000561e-05
-4.130620000000000103e-05
-1.981003000000000115e-04
-3.913085999999999756e-04
-6.032846999999999602e-04
-8.070631000000000419e-04
-9.752181999999999865e-04
-1.089225799999999928e-03
-1.143819300000000014e-03
-1.145233899999999931e-03
-1.106127799999999991e-03
-1.040553199999999902e-03
2.871122000000000257e-04
3.002669000000000236e-04
3.087019000000000199e-04
3.085435999999999778e-04
2.935473000000000075e-04
2.539112000000000161e-04
1.753628999999999876e-04
4.043870000000000299e-05
-1.648670999999999991e-04
-4.384551000000000095e-04
-7.515814000000000002e-04
-1.053549800000000035e-03
-1.292769600000000024e-03
-1.438334400000000016e-03
-1.487231699999999905e-03
-1.457038099999999944e-03
-1.373479500000000103e-03
-1.260820200000000021e-03
-1.137428800000000063e-03
3.194299999999999961e-04
3.449613999999999936e-04
3.705256999999999887e-04
3.942074999999999963e-04
4.124706000000000010e-04
4.187465999999999931e-04
4.007603999999999789e-04
3.363856999999999937e-04
1.907384000000000033e-04
-7.573839999999999978e-05
-4.771438000000000242e-04
-9.659106999999999676e-04
-1.437913199999999933e-03
-1.788814400000000035e-03
-1.967513900000000034e-03
-1.984423099999999950e-03
-1.885285499999999953e-03
-1.721379400000000014e-03
-1.532939299999999975e-03
-1.345423000000000105e-03
3.705356999999999835e-04
4.080560999999999910e-04
4.490496000000000179e-04
