-6.227639999999999890e-05
-1.458560999999999875e-04
-2.299722999999999937e-04
-3.111899999999999801e-04
-3.862016999999999924e-04
-4.521858000000000236e-04
-7.000090000000000262e-05
-1.615564999999999905e-04
-2.563341000000000230e-04
-3.504309000000000265e-04
-4.397385000000000183e-04
-5.204088000000000377e-04
-5.892933999999999846e-04
-6.442636999999999756e-04
-7.110070000000000181e-05
-1.684683000000000079e-04
-2.723544000000000160e-04
-3.787396999999999747e-04
-4.829486999999999929e-04
-5.801534999999999808e-04
-6.659538000000000003e-04
-7.369031000000000496e-04
-7.908649000000000451e-04
-8.271317999999999943e-04
-1.651362999999999930e-04
-2.750806999999999970e-04
-3.913758000000000146e-04
-5.092471000000000324e-04
-6.232190999999999773e-04
-7.277397999999999810e-04
-8.178788000000000204e-04
-8.899407000000000021e-04
-9.418491999999999880e-04
-9.732331000000000315e-04
-1.520613999999999939e-04
-2.638658000000000106e-04
-3.859482999999999924e-04
-5.140343000000000126e-04
-6.426058999999999591e-04
-7.654196000000000263e-04
-8.762482000000000040e-04
-9.696941999999999628e-04
-1.041880399999999939e-03
-1.090852499999999965e-03
-1.116622000000000057e-03
-2.406453999999999982e-04
-3.633274000000000139e-04
-4.963355999999999714e-04
-6.348137000000000441e-04
-7.725759000000000445e-04
-9.027097999999999676e-04
-1.018423399999999991e-03
-1.113955999999999931e-03
-1.185328899999999906e-03
-1.230754599999999907e-03
-1.250633699999999932e-03
-3.273452000000000046e-04
-4.591967999999999875e-04
-6.011531000000000296e-04
-7.478702999999999740e-04
-8.926325000000000362e-04
-1.028023899999999961e-03
-1.146855200000000078e-03
-1.243140900000000090e-03
-1.312886799999999927e-03
-1.354494099999999958e-03
-1.368712900000000100e-03
-4.085852000000000060e-04
-5.472746999999999595e-04
-6.955643999999999976e-04
-8.477604999999999820e-04
-9.968064999999999912e-04
-1.134999999999999941e-03
-1.254961699999999989e-03
-1.350641999999999988e-03
-1.418115300000000059e-03
-1.455968599999999964e-03
-1.465223600000000077e-03
-4.812021999999999784e-04
-6.239712000000000340e-04
-7.755716999999999863e-04
-9.301274999999999474e-04
-1.080459499999999930e-03
-1.218820700000000038e-03
-1.337865500000000102e-03
-1.431644300000000031e-03
-1.496375500000000046e-03
-1.530811599999999965e-03
-6.866828000000000385e-04
-8.384501999999999840e-04
-9.921848999999999946e-04
-1.140807100000000010e-03
-1.276760600000000035e-03
-1.392946200000000009e-03
-1.483664300000000092e-03
-8.829438999999999474e-04
-1.032902800000000095e-03
-1.177084500000000070e-03
-1.308328199999999946e-03
-1.419958700000000049e-03
2.327770000000000110e-04
1.661969000000000011e-04
9.353839999999999876e-05
1.732500000000000099e-05
-5.951299999999999754e-05
-1.339288999999999909e-04
-2.030819999999999913e-04
-2.646289000000000237e-04
2.361285000000000077e-04
1.661423000000000034e-04
8.752219999999999358e-05
2.781899999999999996e-06
-8.483689999999999406e-05
-1.716594000000000052e-04
-2.539754000000000078e-04
-3.284610999999999781e-04
-3.925363000000000181e-04
-4.445825000000000146e-04
2.377474000000000135e-04
1.658712999999999919e-04
8.258689999999999358e-05
-9.910499999999999388e-06
-1.083469000000000044e-04
-2.085946000000000035e-04
-3.060874999999999794e-04
-3.963567999999999996e-04
-4.755750999999999794e-04
-5.409832999999999743e-04
-5.911112000000000267e-04
-6.257689000000000524e-04
2.379574000000000131e-04
1.662458999999999866e-04
8.045529999999999522e-05
-1.790300000000000122e-05
-1.259440999999999924e-04
-2.394720999999999937e-04
-3.533063000000000024e-04
-4.618504999999999854e-04
-5.598018000000000178e-04
-6.428357999999999685e-04
-7.081026000000000464e-04
-7.544287999999999689e-04
-7.822153000000000526e-04
-7.931080999999999765e-04
1.675341000000000059e-04
8.211309999999999822e-05
-1.901489999999999984e-05
-1.338296000000000104e-04
-2.586363000000000160e-04
-3.881755999999999770e-04
-5.160742000000000064e-04
-6.356021000000000110e-04
-7.405832000000000213e-04
-8.262366999999999628e-04
-8.897341000000000234e-04
-9.303552999999999996e-04
-9.492603000000000499e-04
-9.489995999999999458e-04
1.692359999999999904e-04
8.730770000000000436e-05
-1.269070000000000031e-05
-1.299632999999999962e-04
-2.619114999999999876e-04
-4.039452000000000233e-04
-5.496503000000000456e-04
-6.913848999999999472e-04
-8.212468999999999585e-04
-9.322049000000000437e-04
-1.019097700000000080e-03
-1.079238599999999930e-03
-1.112498599999999947e-03
-1.120924300000000024e-03
-1.108067599999999894e-03
9.463309999999999355e-05
-3.013999999999999857e-07
-1.149965999999999960e-04
-2.483322999999999737e-04
-3.970910000000000238e-04
-5.557592999999999561e-04
-7.167614000000000320e-04
-8.712095999999999469e-04
-1.010087800000000063e-03
-1.125598299999999892e-03
-1.212307599999999912e-03
-1.267776800000000028e-03
-1.292554100000000046e-03
-1.289624700000000087e-03
-1.263558199999999980e-03
1.543240000000000153e-05
-9.203149999999999460e-05
-2.206222000000000033e-04
-3.688607999999999904e-04
-5.329119000000000434e-04
-7.063869000000000181e-04
-8.806495000000000122e-04
-1.045712999999999981e-03
-1.191618200000000042e-03
-1.309966899999999955e-03
-1.395182000000000019e-03
-1.445143399999999998e-03
-1.461082700000000071e-03
-1.446875299999999913e-03
-1.408024500000000078e-03
3.150390000000000173e-05
-6.536610000000000423e-05
-1.840708999999999998e-04
-3.247831000000000177e-04
-4.856473000000000148e-04
-6.622594000000000310e-04
-8.474873999999999862e-04
-1.031848799999999979e-03
-1.204528500000000019e-03
-1.354904299999999976e-03
-1.474209100000000014e-03
-1.556858400000000076e-03
-1.601071799999999974e-03
-1.608681100000000077e-03
-1.584297699999999941e-03
-1.534173900000000094e-03
-1.445646999999999883e-04
-2.724674000000000063e-04
-4.226526000000000198e-04
-5.928949999999999672e-04
-7.783186000000000531e-04
-9.712546999999999760e-04
-1.161681400000000048e-03
-1.338322999999999987e-03
-1.490252000000000070e-03
-1.608604499999999977e-03
-1.687918799999999896e-03
-1.726726199999999893e-03
-1.727297800000000090e-03
-1.694739700000000033e-03
-1.635790100000000065e-03
-2.191018000000000035e-04
-3.535750000000000156e-04
-5.099503000000000022e-04
-6.856667000000000534e-04
-8.755142999999999736e-04
-1.071543600000000093e-03
-1.263553400000000078e-03
-1.440219200000000029e-03
-1.590694900000000009e-03
-1.706297500000000019e-03
-1.781801499999999911e-03
-1.815986799999999958e-03
-1.811358099999999926e-03
-1.773228699999999979e-03
-2.863610999999999848e-04
-4.244443999999999778e-04
-5.834243999999999498e-04
-7.604664999999999602e-04
-9.501909999999999697e-04
-1.144639700000000052e-03
-1.333792899999999967e-03
-1.506674900000000037e-03
-1.652881099999999959e-03
-1.764158999999999953e-03
-1.835608999999999982e-03
-1.866183200000000059e-03
-1.858410200000000078e-03
-1.817524700000000071e-03
-4.830804999999999973e-04
-6.411299999999999551e-04
-8.155248000000000358e-04
-1.000885100000000003e-03
-1.189498800000000044e-03
-1.371842999999999977e-03
-1.537622800000000046e-03
-1.677164999999999993e-03
-1.782841799999999909e-03
-1.850143700000000078e-03
-1.878125899999999893e-03
-1.869163299999999960e-03
-5.285312000000000126e-04
-6.824707999999999643e-04
-8.507621999999999841e-04
-1.028183700000000027e-03
-1.207478199999999962e-03
-1.379858500000000036e-03
-1.535946000000000056e-03
-1.666995400000000028e-03
-1.766130000000000087e-03
-1.829269400000000040e-03
-1.855522000000000074e-03
-8.675004000000000265e-04
-1.034279900000000018e-03
-1.201720999999999996e-03
-1.361921899999999968e-03
-1.506552200000000046e-03
-1.627894800000000012e-03
-1.719883200000000027e-03
-1.176414399999999895e-03
-1.323149399999999946e-03
-1.455355399999999893e-03
3.654312000000000055e-04
3.067542000000000250e-04
2.422783000000000076e-04
1.742197000000000016e-04
1.050920999999999962e-04
3.745860000000000080e-05
4.355617000000000212e-04
3.840434999999999899e-04
3.227843999999999787e-04
2.533260000000000069e-04
1.779519999999999930e-04
9.952499999999999325e-05
2.121120000000000115e-05
-5.386149999999999922e-05
-1.229415999999999886e-04
-1.839188999999999917e-04
4.482380999999999800e-04
3.974593000000000115e-04
3.346668999999999924e-04
2.609841999999999804e-04
1.785289999999999978e-04
9.033499999999999484e-05
1.031000000000000034e-07
-8.819259999999999990e-05
-1.707715999999999965e-04
-2.444823000000000157e-04
-3.071106000000000205e-04
-3.575062000000000162e-04
4.539963999999999957e-04
4.051670999999999853e-04
3.421836000000000148e-04
2.654889999999999919e-04
1.767217999999999925e-04
7.878569999999999345e-05
-2.429329999999999999e-05
-1.277436000000000012e-04
-2.266101999999999873e-04
-3.163853000000000216e-04
-3.935559999999999840e-04
-4.559443000000000046e-04
-5.027798999999999463e-04
-5.345372000000000361e-04
4.526811999999999850e-04
4.070785000000000159e-04
3.455724000000000187e-04
2.676849999999999824e-04
1.742109999999999893e-04
6.749039999999999337e-05
-4.853259999999999676e-05
-1.685524999999999892e-04
-2.864642000000000143e-04
-3.961546999999999833e-04
-4.923424000000000246e-04
-5.712469999999999874e-04
-6.309317999999999958e-04
-6.712731999999999684e-04
-6.936317000000000220e-04
-7.003660000000000094e-04
4.033083000000000024e-04
3.451630999999999818e-04
2.685154999999999942e-04
1.729947999999999924e-04
5.987139999999999736e-05
-6.760419999999999895e-05
-2.041664000000000109e-04
-3.429211000000000260e-04
-4.761612000000000245e-04
-5.964591999999999897e-04
-6.977583000000000309e-04
-7.761649999999999930e-04
-8.302488999999999919e-04
-8.608414000000000213e-04
-8.704780999999999760e-04
-8.626998000000000305e-04
3.940279999999999889e-04
3.410312999999999886e-04
2.683642999999999879e-04
1.743550000000000069e-04
5.879879999999999683e-05
-7.642970000000000449e-05
-2.269634000000000029e-04
-3.859461000000000011e-04
-5.446111000000000008e-04
-6.934210999999999804e-04
-8.235312000000000274e-04
-9.281686999999999620e-04
-1.003531499999999951e-03
-1.048989499999999908e-03
-1.066637999999999961e-03
-1.060450899999999981e-03
-1.035336599999999970e-03
3.795175999999999931e-04
3.329733999999999992e-04
2.667645999999999971e-04
1.780674999999999955e-04
6.510169999999999369e-05
-7.210310000000000428e-05
-2.309531000000000030e-04
-4.057981999999999800e-04
-5.879920999999999976e-04
-7.667048999999999783e-04
-9.304458999999999950e-04
-1.068944899999999931e-03
-1.174836799999999905e-03
-1.244636300000000022e-03
-1.278780100000000012e-03
-1.280873000000000081e-03
-1.256507999999999931e-03
-1.212063300000000088e-03
-1.153747400000000025e-03
3.208042999999999941e-04
2.627198999999999984e-04
1.824921000000000073e-04
7.704380000000000256e-05
-5.544919999999999759e-05
-2.146473999999999941e-04
-3.971538000000000260e-04
-5.959529999999999775e-04
-8.005456999999999677e-04
-9.980202999999999557e-04
-1.174980800000000004e-03
-1.319855900000000077e-03
-1.424867700000000039e-03
-1.487044700000000105e-03
-1.508059599999999950e-03
-1.493135399999999955e-03
-1.449525400000000038e-03
-1.385060600000000012e-03
-1.307069299999999998e-03
2.553518999999999971e-04
1.854681000000000005e-04
9.120480000000000470e-05
-3.066839999999999931e-05
-1.819205000000000008e-04
-3.618219999999999791e-04
-5.661393000000000024e-04
-7.865307000000000418e-04
-1.010772000000000059e-03
-1.224082600000000022e-03
-1.411430100000000010e-03
-1.560211900000000023e-03
-1.662453099999999968e-03
-1.715813799999999899e-03
-1.723210599999999964e-03
-1.691401900000000019e-03
-1.629162900000000061e-03
-1.545622699999999990e-03
-1.449086200000000105e-03
1.853188999999999986e-04
1.040658000000000024e-04
-3.340100000000000005e-06
-1.401391999999999948e-04
-3.079161999999999980e-04
-5.054791000000000102e-04
-7.277886999999999594e-04
-9.653554000000000171e-04
-1.204566499999999967e-03
-1.429229699999999981e-03
-1.623161699999999940e-03
-1.773130900000000022e-03
-1.871187700000000089e-03
-1.915630800000000036e-03
-1.910443099999999984e-03
-1.863628599999999974e-03
-1.785164500000000062e-03
-1.685190100000000073e-03
-1.572763800000000082e-03
1.132260999999999966e-04
2.174290000000000150e-05
-9.701420000000000367e-05
-2.461248000000000190e-04
-4.268521999999999855e-04
-6.374918999999999942e-04
-8.723030999999999797e-04
-1.120953999999999961e-03
-1.368955600000000029e-03
-1.599350200000000102e-03
-1.795448600000000040e-03
-1.943871900000000100e-03
-2.036899699999999806e-03
-2.073370000000000161e-03
-2.057995999999999871e-03
-1.999571600000000105e-03
-1.908814499999999950e-03
-1.796484799999999941e-03
4.171959999999999948e-05
-5.822439999999999772e-05
-1.857893000000000001e-04
-3.437256999999999878e-04
-5.328560999999999888e-04
-7.509561999999999574e-04
-9.917539000000000389e-04
-1.244469700000000022e-03
-1.494345700000000027e-03
-1.724390199999999975e-03
-1.918104600000000107e-03
-2.062453000000000116e-03
-2.150112200000000098e-03
-2.180292800000000180e-03
-2.158019399999999872e-03
-2.092338200000000079e-03
-1.994176700000000087e-03
-1.874476099999999954e-03
-2.668550000000000056e-05
-1.328547999999999871e-04
-2.661885000000000011e-04
-4.289709000000000165e-04
-6.215098999999999971e-04
-8.411059999999999934e-04
-1.081175599999999962e-03
-1.330915599999999994e-03
-1.575903200000000094e-03
-1.799804400000000037e-03
-1.986945600000000148e-03
-2.125061200000000206e-03
-2.207350800000000123e-03
-2.233216699999999912e-03
-2.207585499999999926e-03
-2.139236599999999860e-03
-2.038792099999999809e-03
-1.997443000000000113e-04
-3.356230000000000086e-04
-4.992036999999999516e-04
-6.902647999999999510e-04
-9.057279000000000328e-04
-1.138937899999999896e-03
-1.379461499999999965e-03
-1.613723399999999987e-03
-1.826599900000000021e-03
-2.003726700000000183e-03
-2.133923399999999946e-03
-2.210996199999999863e-03
-2.234390800000000000e-03
-2.208610499999999911e-03
-2.141749000000000083e-03
-2.043695900000000194e-03
-2.572400999999999768e-04
-3.925587000000000130e-04
-5.532074000000000323e-04
-7.384785999999999738e-04
-9.450463999999999783e-04
-1.166414400000000086e-03
-1.392835000000000037e-03
-1.611947099999999893e-03
-1.810198299999999944e-03
-1.974830500000000072e-03
-2.095931899999999969e-03
-2.167960400000000162e-03
-2.190313399999999858e-03
-2.166866999999999838e-03
-2.104754899999999786e-03
-4.365066000000000128e-04
-5.910906999999999750e-04
-7.671366999999999900e-04
-9.612165999999999679e-04
-1.167184799999999986e-03
-1.376195200000000047e-03
-1.577307000000000015e-03
-1.758707599999999966e-03
-1.909360900000000010e-03
-2.020685099999999963e-03
-2.087801900000000113e-03
-2.110024299999999943e-03
-2.090517999999999977e-03
-6.140075999999999520e-04
-7.783930999999999793e-04
-9.576355999999999627e-04
-1.146080500000000012e-03
-1.335896299999999931e-03
-1.517625400000000013e-03
-1.681203800000000094e-03
-1.817289300000000029e-03
-1.918596199999999911e-03
-1.980893000000000063e-03
-2.003414299999999905e-03
-9.382661000000000256e-04
-1.108322099999999944e-03
-1.278443599999999972e-03
-1.440611299999999947e-03
-1.586405900000000023e-03
-1.708054299999999968e-03
-1.799468100000000065e-03
5.439658999999999684e-04
4.994100999999999705e-04
4.458967999999999894e-04
3.848360999999999796e-04
3.182311999999999966e-04
2.485165999999999916e-04
1.783203000000000078e-04
1.101910000000000026e-04
6.087154000000000436e-04
5.776817999999999753e-04
5.351880999999999522e-04
4.814816999999999882e-04
4.176194000000000152e-04
3.454956999999999928e-04
2.677431999999999881e-04
1.874963999999999960e-04
1.080540000000000059e-04
3.250750000000000005e-05
-3.658249999999999745e-05
-9.739570000000000670e-05
6.289728000000000506e-04
6.027848000000000364e-04
5.636724000000000075e-04
5.112025000000000510e-04
4.458350000000000030e-04
3.690798000000000234e-04
2.835165999999999750e-04
1.926305999999999917e-04
1.004632000000000040e-04
1.113260000000000078e-05
-7.166789999999999868e-05
-1.450750999999999961e-04
-2.072800999999999875e-04
-2.575489000000000034e-04
6.381059000000000123e-04
6.174375000000000393e-04
5.827996000000000435e-04
5.329481999999999536e-04
4.675171999999999900e-04
3.873201000000000053e-04
2.945415000000000056e-04
1.927276000000000011e-04
8.651490000000000070e-05
-1.889259999999999933e-05
-1.184017000000000018e-04
-2.076959999999999982e-04
-2.837229000000000140e-04
-3.448980000000000036e-04
-3.910249999999999772e-04
-4.230120999999999881e-04
6.206907999999999696e-04
5.913525999999999462e-04
5.454233999999999862e-04
4.815223999999999893e-04
3.994455000000000163e-04
3.005621000000000204e-04
1.880410000000000111e-04
6.677700000000000118e-05
-5.705699999999999937e-05
-1.767927999999999991e-04
-2.862187999999999777e-04
-3.804438000000000047e-04
-4.564452999999999783e-04
-5.131902999999999508e-04
-5.513777000000000521e-04
-5.729495999999999938e-04
6.125005999999999680e-04
5.889887999999999808e-04
5.481928999999999535e-04
4.876271999999999855e-04
4.057929000000000158e-04
3.027762000000000031e-04
1.807714000000000087e-04
4.433679999999999875e-05
-9.979609999999999816e-05
-2.434477000000000104e-04
-3.781546999999999795e-04
-4.964852999999999541e-04
-5.931254999999999644e-04
-6.654341999999999722e-04
-7.133817999999999670e-04
-7.390081000000000167e-04
-7.456544000000000279e-04
-7.372120000000000018e-04
5.936239999999999529e-04
5.760863999999999872e-04
5.414187000000000210e-04
4.861209000000000233e-04
4.072874000000000199e-04
3.033296000000000104e-04
1.747821999999999950e-04
2.498789999999999838e-05
-1.396207999999999965e-04
-3.099043000000000002e-04
-4.751542999999999782e-04
-6.247893000000000457e-04
-7.501339999999999571e-04
-8.457286000000000057e-04
-9.097988000000000212e-04
-9.438714000000000175e-04
-9.518241000000000201e-04
-9.387643999999999459e-04
-9.100545000000000466e-04
5.536167999999999948e-04
5.256170000000000330e-04
4.772891000000000243e-04
4.044997000000000262e-04
3.038892000000000177e-04
1.738227000000000121e-04
1.545779999999999962e-05
-1.663679999999999901e-04
-3.628416000000000193e-04
-5.618361000000000535e-04
-7.496178000000000043e-04
-9.132365999999999834e-04
-1.042861499999999915e-03
-1.133280699999999986e-03
-1.184155600000000091e-03
-1.199152499999999941e-03
-1.184459300000000005e-03
-1.147256199999999995e-03
-1.094521999999999900e-03
-1.032308499999999964e-03
5.231059000000000360e-04
5.016681999999999956e-04
4.613137999999999809e-04
3.971433000000000233e-04
3.043661999999999930e-04
1.791754000000000057e-04
1.996009999999999885e-05
-1.713239999999999880e-04
-3.880366000000000110e-04
-6.185596999999999927e-04
-8.473248999999999755e-04
-1.057232800000000019e-03
-1.232874699999999928e-03
-1.363475199999999912e-03
-1.444520500000000089e-03
-1.477650299999999943e-03
-1.469156899999999981e-03
-1.427878700000000068e-03
-1.363242599999999957e-03
-1.283880199999999899e-03
-1.196900299999999976e-03
4.709553000000000003e-04
4.386265000000000194e-04
3.844853999999999763e-04
3.029786000000000133e-04
1.887116000000000043e-04
3.750790000000000048e-05
-1.521066999999999916e-04
-3.772234999999999976e-04
-6.292046999999999831e-04
-8.934209000000000031e-04
-1.150707599999999933e-03
-1.380574000000000081e-03
-1.565308999999999971e-03
-1.693512600000000087e-03
-1.761763300000000060e-03
-1.774035399999999898e-03
-1.739484300000000011e-03
-1.669694399999999915e-03
-1.576317399999999959e-03
-1.469546900000000050e-03
-1.357429399999999977e-03
4.102676999999999886e-04
3.662032000000000178e-04
2.975589999999999746e-04
1.982492999999999994e-04
6.242850000000000038e-05
-1.142776000000000051e-04
-3.330440000000000050e-04
-5.898973999999999537e-04
-8.741931999999999568e-04
-1.168427000000000094e-03
-1.450132600000000015e-03
-1.695846399999999905e-03
-1.886007999999999999e-03
-2.008971200000000089e-03
-2.062620099999999852e-03
-2.053282999999999931e-03
-1.992838199999999883e-03
-1.895386399999999909e-03
-1.774557200000000026e-03
-1.641888999999999892e-03
-1.506202000000000105e-03
3.428920000000000232e-04
2.868937000000000006e-04
2.039321999999999988e-04
8.760040000000000242e-05
-6.814570000000000046e-05
-2.676180999999999916e-04
-5.114927000000000232e-04
-7.946910000000000389e-04
-1.104780099999999902e-03
-1.421912800000000058e-03
-1.721115600000000046e-03
-1.976834299999999899e-03
-2.168388499999999997e-03
-2.284259399999999992e-03
-2.323590099999999978e-03
-2.294678100000000116e-03
-2.211569500000000205e-03
-2.090319199999999839e-03
-1.946072999999999987e-03
-1.791392099999999975e-03
-1.635681400000000077e-03
2.711737999999999887e-04
2.037709999999999977e-04
1.076473000000000019e-04
-2.364660000000000159e-05
-1.960321999999999965e-04
-4.134510999999999894e-04
-6.758851000000000182e-04
-9.772051999999999388e-04
-1.303630600000000054e-03
-1.633843399999999977e-03
-1.941553300000000044e-03
-2.200336800000000058e-03
-2.389290499999999814e-03
-2.497342000000000051e-03
-2.524602600000000127e-03
-2.480617300000000167e-03
-2.380714700000000159e-03
-2.242086600000000110e-03
-2.080772700000000069e-03
-1.909960000000000043e-03
-1.739434200000000057e-03
1.977457000000000065e-04
1.201780000000000003e-04
1.293950000000000037e-05
-1.301572000000000080e-04
-3.145794000000000259e-04
-5.436072999999999817e-04
-8.163918999999999516e-04
-1.125921800000000052e-03
-1.457667200000000015e-03
-1.789895199999999966e-03
-2.096353100000000053e-03
-2.351069099999999936e-03
-2.533822099999999845e-03
-2.634226400000000065e-03
-2.652934400000000158e-03
-2.599859899999999811e-03
-2.490585000000000021e-03
-2.342507599999999954e-03
-2.171862899999999971e-03
-1.992024599999999996e-03
1.252712000000000010e-04
3.937419999999999988e-05
-7.624959999999999583e-05
-2.272467000000000074e-04
-4.183513999999999939e-04
-6.519725999999999994e-04
-9.263993000000000531e-04
-1.234006099999999983e-03
-1.560174500000000063e-03
-1.883794899999999923e-03
-2.179901000000000148e-03
-2.424135799999999844e-03
-2.597720500000000148e-03
-2.691119100000000097e-03
-2.705102599999999798e-03
-2.649134100000000071e-03
-2.538088200000000044e-03
-2.388686499999999845e-03
-2.216680300000000055e-03
-2.035187200000000002e-03
5.619089999999999762e-05
-3.579449999999999754e-05
-1.566902000000000063e-04
-3.113923000000000103e-04
-5.037213000000000454e-04
-7.351274999999999780e-04
-1.003122200000000023e-03
-1.299798700000000034e-03
-1.611064499999999896e-03
-1.917281100000000097e-03
-2.195709200000000184e-03
-2.424433599999999914e-03
-2.586635900000000196e-03
-2.673727700000000113e-03
-2.686289100000000159e-03
-2.632730199999999861e-03
-2.526489900000000125e-03
-2.382910399999999939e-03
-2.216683899999999981e-03
-1.031398999999999982e-04
-2.261339999999999867e-04
-3.804945000000000007e-04
-5.690650000000000005e-04
-7.923729999999999706e-04
-1.047329600000000043e-03
-1.326088499999999960e-03
-1.615568599999999940e-03
-1.898167899999999957e-03
-2.153921599999999818e-03
-2.363791000000000069e-03
-2.513172100000000183e-03
-2.594469700000000094e-03
-2.607914299999999908e-03
-2.560540500000000209e-03
-2.463925300000000158e-03
-2.331578200000000017e-03
-2.176718499999999966e-03
-2.833989999999999882e-04
-4.338726999999999905e-04
-6.145833999999999542e-04
-8.252663999999999833e-04
-1.062458600000000053e-03
-1.318671800000000048e-03
-1.582153599999999976e-03
-1.837610200000000006e-03
-2.068032599999999801e-03
-2.257347299999999928e-03
-2.393193300000000159e-03
-2.468967299999999965e-03
-2.484524899999999981e-03
-2.445451799999999801e-03
-2.361325000000000056e-03
-2.243621299999999999e-03
-3.282892000000000145e-04
-4.720492999999999868e-04
-6.418773000000000013e-04
-8.368988999999999638e-04
-1.053503300000000007e-03
-1.284781499999999984e-03
-1.520459899999999920e-03
-1.747581200000000072e-03
-1.951997000000000020e-03
-2.120440300000000014e-03
-2.242660300000000155e-03
-2.313006500000000000e-03
-2.331017500000000069e-03
-2.300932999999999798e-03
-2.230409000000000037e-03
-6.534293999999999953e-04
-8.311446000000000112e-04
-1.025998200000000039e-03
-1.231794100000000065e-03
-1.439750199999999909e-03
-1.639104800000000008e-03
-1.818304400000000107e-03
-1.966585500000000031e-03
-2.075581899999999827e-03
-2.140526399999999937e-03
-2.160734300000000194e-03
-2.139296599999999937e-03
-8.120374999999999989e-04
-9.852668000000001057e-04
-1.166378200000000101e-03
-1.347996699999999982e-03
-1.521320000000000051e-03
-1.677042199999999967e-03
-1.806541899999999923e-03
-1.903072100000000044e-03
-1.962659099999999879e-03
6.558491999999999751e-04
6.184619000000000357e-04
5.710819999999999915e-04
5.147752999999999704e-04
4.512650999999999902e-04
3.828085000000000060e-04
3.119816999999999881e-04
2.414112999999999903e-04
7.268902999999999953e-04
7.061707000000000184e-04
6.734671000000000017e-04
6.285302999999999680e-04
5.719040000000000321e-04
5.050176999999999878e-04
4.301539999999999747e-04
3.502677999999999738e-04
2.686739000000000163e-04
1.886671000000000084e-04
1.131586000000000045e-04
4.440839999999999989e-05
7.599468000000000065e-04
7.468375999999999661e-04
7.206101999999999603e-04
6.802197000000000495e-04
6.254271999999999740e-04
5.570329999999999639e-04
4.769983999999999899e-04
3.883865999999999924e-04
2.950893999999999804e-04
2.013716999999999883e-04
1.113327999999999990e-04
2.842050000000000004e-05
-4.489319999999999905e-05
-1.072221999999999981e-04
7.793356000000000198e-04
7.744931999999999728e-04
7.559907000000000259e-04
7.219181000000000296e-04
6.710635000000000168e-04
6.032805999999999716e-04
5.197980000000000265e-04
4.233681999999999897e-04
3.181527000000000075e-04
2.093002000000000057e-04
1.022769999999999967e-04
2.112300000000000088e-06
-8.723720000000000563e-05
-1.632485999999999941e-04
-2.248765000000000009e-04
-2.723393000000000168e-04
7.835315000000000248e-04
7.868702000000000205e-04
7.766373000000000460e-04
7.500777999999999829e-04
7.049097000000000045e-04
6.397920000000000300e-04
5.548200999999999567e-04
4.519309999999999799e-04
3.350625000000000196e-04
2.099271000000000047e-04
8.334789999999999528e-05
-3.772609999999999782e-05
-1.472633000000000102e-04
-2.409430000000000003e-04
-3.165029999999999883e-04
-3.736274999999999731e-04
-4.135151000000000213e-04
-4.383227999999999972e-04
7.723583000000000011e-04
7.831097999999999879e-04
7.809905000000000232e-04
7.625120000000000205e-04
7.243227999999999559e-04
6.637258999999999737e-04
5.793268999999999979e-04
4.717077999999999766e-04
3.439451999999999744e-04
2.017456999999999953e-04
5.300149999999999729e-05
-9.326369999999999951e-05
-2.283399999999999991e-04
-3.452352000000000112e-04
-4.396010000000000217e-04
-5.099545999999999506e-04
-5.572727999999999883e-04
-5.842271000000000226e-04
-5.943607999999999964e-04
-5.914098999999999702e-04
7.637743999999999697e-04
7.689898000000000350e-04
7.585762999999999491e-04
7.282510999999999976e-04
6.739314999999999629e-04
5.924570000000000097e-04
4.824982999999999811e-04
3.454832000000000129e-04
1.862522999999999989e-04
1.309669999999999948e-05
-1.630769999999999974e-04
-3.304226999999999967e-04
-4.782480000000000194e-04
-5.988398000000000462e-04
-6.884229999999999646e-04
-7.470635999999999466e-04
-7.777686999999999925e-04
-7.852577999999999815e-04
-7.748270999999999934e-04
-7.515317999999999998e-04
7.306664999999999948e-04
7.419065000000000295e-04
7.389620000000000173e-04
7.169370999999999904e-04
6.705727000000000519e-04
5.948967999999999791e-04
4.862306000000000267e-04
3.434681999999999991e-04
1.693579999999999868e-04
-2.867669999999999939e-05
-2.387097000000000025e-04
-4.458002999999999879e-04
-6.346140000000000331e-04
-7.923922000000000127e-04
-9.112098000000000116e-04
-9.887682999999999976e-04
-1.027686199999999946e-03
-1.033859499999999990e-03
-1.014644400000000012e-03
-9.774002000000000818e-04
-9.285903999999999990e-04
7.021074000000000195e-04
7.054486000000000003e-04
6.915073000000000530e-04
6.543386999999999901e-04
5.875312000000000373e-04
4.850696999999999951e-04
3.427120000000000079e-04
1.597658000000000010e-04
-5.914929999999999965e-05
-3.030851999999999895e-04
-5.552966000000000325e-04
-7.957236000000000127e-04
-1.004950699999999919e-03
-1.168285899999999900e-03
-1.278384200000000099e-03
-1.335563899999999988e-03
-1.346116500000000020e-03
-1.319675300000000074e-03
-1.266727199999999895e-03
-1.196877199999999905e-03
-1.117969199999999975e-03
-1.035866099999999904e-03
6.527641000000000476e-04
6.607422999999999639e-04
6.538817999999999844e-04
6.261825999999999634e-04
5.705468999999999905e-04
4.792967999999999881e-04
3.452837999999999958e-04
1.637090000000000008e-04
-6.548850000000000157e-05
-3.352779999999999975e-04
-6.303008999999999609e-04
-9.279285000000000181e-04
-1.202092199999999942e-03
-1.428962800000000040e-03
-1.592306900000000020e-03
-1.686319599999999913e-03
-1.715091400000000104e-03
-1.689578300000000059e-03
-1.623788599999999912e-03
-1.531613499999999982e-03
-1.424909999999999935e-03
-1.312756100000000026e-03
-1.201493500000000046e-03
6.082292999999999467e-04
6.068239999999999485e-04
5.877099000000000429e-04
5.439353999999999760e-04
4.672513000000000100e-04
3.487342000000000263e-04
1.801581999999999923e-04
-4.370679999999999970e-05
-3.220454999999999780e-04
-6.450063999999999711e-04
-9.922672000000000870e-04
-1.334760300000000042e-03
-1.640097299999999968e-03
-1.880178900000000018e-03
-2.037843499999999856e-03
-2.109689000000000095e-03
-2.104382699999999932e-03
-2.038074400000000098e-03
-1.929351499999999893e-03
-1.795464600000000075e-03
-1.650341500000000001e-03
-1.504072099999999995e-03
-1.363269700000000091e-03
5.537253000000000227e-04
5.414802999999999934e-04
5.085909999999999693e-04
4.472511999999999777e-04
3.482140999999999904e-04
2.015273000000000043e-04
-1.838600000000000066e-06
-2.672441999999999917e-04
-5.927289000000000299e-04
-9.654692000000000092e-04
-1.360241600000000085e-03
-1.741887500000000076e-03
-2.072324200000000022e-03
-2.319960499999999988e-03
-2.467415900000000020e-03
-2.514124600000000164e-03
-2.473400800000000004e-03
-2.366357500000000093e-03
-2.215775299999999792e-03
-2.041860800000000215e-03
-1.860277999999999932e-03
-1.681892099999999970e-03
-1.513442800000000098e-03
4.907219999999999681e-04
4.667154999999999871e-04
4.193086000000000057e-04
3.400570000000000003e-04
2.190356000000000074e-04
4.569059999999999924e-05
-1.893084000000000119e-04
-4.909791999999999629e-04
-8.559591999999999548e-04
-1.268651599999999968e-03
-1.699763300000000071e-03
-2.109472199999999891e-03
-2.455681700000000162e-03
-2.704702800000000074e-03
-2.839586099999999880e-03
-2.862385700000000081e-03
-2.790212299999999916e-03
-2.648052299999999800e-03
-2.461884699999999926e-03
-2.254143799999999958e-03
-2.041792100000000207e-03
-1.836266499999999980e-03
-1.644386000000000068e-03
4.212910999999999956e-04
3.852810999999999931e-04
3.235560000000000172e-04
2.273533999999999907e-04
8.652319999999999857e-05
-1.095050999999999962e-04
-3.697106000000000242e-04
-6.982153999999999965e-04
-1.090090599999999927e-03
-1.527535000000000004e-03
-1.978702000000000152e-03
-2.401406799999999866e-03
-2.752000100000000140e-03
-2.996465099999999840e-03
-3.118767199999999788e-03
-3.122766800000000183e-03
-3.027761600000000112e-03
-2.860849700000000183e-03
-2.649756200000000141e-03
-2.418180199999999877e-03
-2.183878499999999945e-03
-1.958691399999999954e-03
-1.749553600000000033e-03
3.479347999999999946e-04
3.004209999999999888e-04
2.255501999999999941e-04
1.146226000000000027e-04
-4.222360000000000008e-05
-2.549464999999999891e-04
-5.315199999999999526e-04
-8.746941000000000048e-04
-1.277994900000000052e-03
-1.722284900000000014e-03
-2.175044399999999812e-03
-2.594361500000000060e-03
-2.937689099999999873e-03
-3.172448300000000124e-03
-3.283819500000000058e-03
-3.276372499999999788e-03
-3.169683999999999870e-03
-2.990946700000000208e-03
-2.767996200000000066e-03
-2.524724500000000062e-03
-2.279131099999999813e-03
-2.043288700000000114e-03
2.733462999999999887e-04
2.155302000000000053e-04
1.295444999999999995e-04
7.133299999999999957e-06
-1.607955999999999958e-04
-3.830449999999999892e-04
-6.660843000000000493e-04
-1.011032800000000089e-03
-1.410124100000000047e-03
-1.843896499999999987e-03
-2.280985200000000199e-03
-2.682098899999999821e-03
-3.008024099999999802e-03
-3.229025899999999824e-03
-3.331665299999999816e-03
-3.320228199999999789e-03
-3.212886400000000003e-03
-3.035120999999999999e-03
-2.813364799999999895e-03
-2.570661599999999897e-03
-2.324677099999999854e-03
-2.087497599999999995e-03
2.001464000000000053e-04
1.337944999999999944e-04
3.934460000000000274e-05
-9.069359999999999510e-05
-2.642750999999999933e-04
-4.886874000000000469e-04
-7.686487000000000527e-04
-1.103663699999999975e-03
-1.485116999999999991e-03
-1.894191199999999999e-03
-2.302107600000000056e-03
-2.673825700000000138e-03
-2.974897599999999989e-03
-3.179288299999999835e-03
-3.275024300000000180e-03
-3.265471299999999927e-03
-3.166283700000000010e-03
-2.999960700000000105e-03
-2.790378699999999847e-03
-2.558856899999999851e-03
-2.322169099999999830e-03
-2.092139299999999907e-03
5.788529999999999956e-05
-4.206750000000000338e-05
-1.757178999999999935e-04
-3.496735999999999855e-04
-5.695687000000000276e-04
-8.383833000000000474e-04
-1.154257400000000032e-03
-1.508255600000000000e-03
-1.882972099999999935e-03
-2.253085799999999996e-03
-2.588603100000000119e-03
-2.860421599999999915e-03
-3.046512899999999791e-03
-3.136399399999999921e-03
-3.132294099999999911e-03
-3.046866400000000207e-03
-2.899002800000000189e-03
-2.709341499999999830e-03
-2.496859599999999915e-03
-2.276965199999999787e-03
-1.023749999999999981e-05
-1.127335000000000007e-04
-2.462359999999999918e-04
-4.159570000000000021e-04
-6.259355999999999774e-04
-8.776262000000000169e-04
-1.168185200000000038e-03
-1.488854599999999946e-03
-1.824129000000000072e-03
-2.152474499999999877e-03
-2.449034399999999809e-03
-2.689960099999999955e-03
-2.857112199999999828e-03
-2.941488800000000188e-03
-2.944218499999999919e-03
-2.875035000000000177e-03
-2.749136100000000148e-03
-2.583695699999999807e-03
-2.395027399999999796e-03
-1.717324999999999960e-04
-3.018825999999999953e-04
-4.637409999999999905e-04
-6.599471999999999890e-04
-8.907507999999999962e-04
-1.152729300000000009e-03
-1.437687900000000083e-03
-1.732234499999999984e-03
-2.018537999999999843e-03
-2.276499100000000005e-03
-2.487017199999999855e-03
-2.635463099999999816e-03
-2.714237799999999826e-03
-2.723611300000000016e-03
-2.670741400000000050e-03
-2.567438500000000182e-03
-2.427541999999999981e-03
-2.264651199999999972e-03
-3.433571000000000062e-04
-4.948090999999999514e-04
-6.749084000000000246e-04
-8.830428999999999883e-04
-1.115566699999999932e-03
-1.365091500000000088e-03
-1.620331899999999901e-03
-1.866819299999999916e-03
-2.088591900000000192e-03
-2.270603600000000149e-03
-2.401237699999999881e-03
-2.474179999999999869e-03
-2.489106799999999883e-03
-2.451086099999999924e-03
-2.369037799999999892e-03
-2.253819900000000095e-03
-5.116062999999999470e-04
-6.745752999999999515e-04
-8.598241999999999864e-04
-1.063751599999999920e-03
-1.279888700000000098e-03
-1.498904500000000075e-03
-1.709232499999999936e-03
-1.898357000000000039e-03
-2.054560999999999887e-03
-2.168721199999999825e-03
-2.235661199999999967e-03
-2.254698299999999961e-03
-2.229299799999999963e-03
-8.258929999999999614e-04
-1.003187999999999910e-03
-1.188987500000000027e-03
-1.375685599999999960e-03
-1.554132099999999987e-03
-1.714595900000000055e-03
-1.848019700000000029e-03
-1.947291099999999900e-03
-2.008210800000000129e-03
7.138888000000000351e-04
6.728914999999999593e-04
6.221173000000000414e-04
5.629885000000000054e-04
4.975147999999999550e-04
4.281104000000000203e-04
8.222581000000000074e-04
8.108956000000000497e-04
7.874730000000000141e-04
7.513449000000000169e-04
7.026075000000000115e-04
6.422371999999999977e-04
5.721139000000000519e-04
4.948961999999999459e-04
4.137521000000000124e-04
3.319962999999999777e-04
2.527176000000000010e-04
1.784762999999999974e-04
8.692790999999999626e-04
8.682084000000000069e-04
8.542753000000000369e-04
8.259498000000000317e-04
7.823920000000000267e-04
7.237364000000000254e-04
6.512942999999999554e-04
5.675908000000000342e-04
4.761790000000000228e-04
3.812379000000000180e-04
2.870400999999999964e-04
1.974225000000000025e-04
1.153894000000000035e-04
4.291690000000000240e-05
9.013636999999999908e-04
9.114939999999999978e-04
9.087601000000000272e-04
8.907328999999999638e-04
8.554752000000000320e-04
8.019404000000000376e-04
7.303728000000000217e-04
6.425966000000000403e-04
5.420635999999999510e-04
4.335677000000000129e-04
3.226374999999999751e-04
2.147516999999999991e-04
1.145972000000000012e-04
2.556589999999999861e-05
-5.042320000000000200e-05
-1.128103999999999999e-04
9.157574999999999613e-04
9.369043000000000076e-04
9.459749000000000152e-04
9.397582999999999501e-04
9.152245999999999515e-04
8.699737999999999612e-04
8.027823000000000337e-04
7.141577000000000081e-04
6.067365999999999602e-04
4.853271999999999838e-04
3.564508999999999993e-04
2.274153999999999911e-04
1.051627999999999954e-04
-4.746399999999999991e-06
-9.872870000000000224e-05
-1.752621000000000105e-04
-2.345682999999999883e-04
-2.780912999999999983e-04
9.113275999999999582e-04
9.422470000000000064e-04
9.625287999999999856e-04
9.683822000000000133e-04
9.558216000000000238e-04
9.210983999999999968e-04
8.613158999999999572e-04
7.751831999999999950e-04
6.637722000000000414e-04
5.310382000000000210e-04
3.838021000000000162e-04
2.309881000000000119e-04
8.219659999999999835e-05
-5.396359999999999948e-05
-1.712139000000000109e-04
-2.662175000000000240e-04
-3.384239999999999839e-04
-3.893998999999999985e-04
-4.219857000000000143e-04
-4.395404000000000108e-04
8.886804000000000101e-04
9.272875000000000085e-04
9.571450999999999917e-04
9.741411000000000167e-04
9.735622999999999673e-04
9.504421999999999784e-04
9.001652000000000394e-04
8.193364999999999980e-04
7.068365999999999538e-04
5.648463000000000268e-04
3.994744000000000051e-04
2.205487000000000116e-04
4.030669999999999815e-05
-1.288034999999999874e-04
-2.764822000000000004e-04
-3.962200000000000249e-04
-4.857374000000000023e-04
-5.463374999999999915e-04
-5.816846999999999773e-04
-5.965421999999999956e-04
-5.957943999999999957e-04
8.936617000000000432e-04
9.306984000000000134e-04
9.569602000000000403e-04
9.673363999999999834e-04
9.559129999999999667e-04
9.164559000000000290e-04
8.432828000000000502e-04
7.325311999999999839e-04
5.836717000000000381e-04
4.008921999999999833e-04
1.937673999999999907e-04
-2.341460000000000110e-05
-2.339324999999999901e-04
-4.220003000000000057e-04
-5.759718999999999733e-04
-6.901211999999999885e-04
-7.645310000000000430e-04
-8.035759000000000391e-04
-8.139189000000000450e-04
-8.027711000000000091e-04
-7.767505000000000503e-04
-7.413285999999999617e-04
8.445220000000000027e-04
8.859143000000000096e-04
9.188821000000000228e-04
9.383383999999999605e-04
9.378951999999999645e-04
9.100853999999999585e-04
8.470319000000000242e-04
7.417165999999999993e-04
5.898621999999999850e-04
3.921500999999999980e-04
1.561044000000000093e-04
-1.033343000000000044e-04
-3.654350999999999802e-04
-6.076127000000000177e-04
-8.104924000000000330e-04
-9.620193999999999664e-04
-1.058948000000000094e-03
-1.105556499999999897e-03
-1.110771800000000037e-03
-1.085181200000000018e-03
-1.038851500000000094e-03
-9.801720000000000745e-04
-9.155078999999999561e-04
8.268881000000000495e-04
8.636400000000000457e-04
8.896104000000000164e-04
8.985440999999999611e-04
8.824809999999999556e-04
8.320168999999999655e-04
7.372074999999999852e-04
5.893829000000000385e-04
3.839180999999999996e-04
1.234940999999999871e-04
-1.793188000000000084e-04
-5.017975999999999947e-04
-8.143796000000000455e-04
-1.087217400000000051e-03
-1.297550499999999916e-03
-1.434570299999999915e-03
-1.499857399999999976e-03
-1.504069800000000078e-03
-1.462200099999999905e-03
-1.389513300000000092e-03
-1.299096000000000018e-03
-1.200923999999999915e-03
-1.101919200000000100e-03
-1.006472499999999963e-03
7.584494000000000435e-04
7.961182000000000241e-04
8.256653000000000516e-04
8.414950999999999725e-04
8.360126000000000059e-04
7.994462999999999830e-04
7.201405000000000349e-04
5.857311999999999935e-04
3.856404999999999816e-04
1.150116999999999953e-04
-2.206231000000000121e-04
-6.018405999999999582e-04
-9.956416000000000051e-04
-1.361331699999999935e-03
-1.660781999999999970e-03
-1.868640100000000005e-03
-1.977532699999999966e-03
-1.996437399999999914e-03
-1.944447900000000062e-03
-1.843788000000000067e-03
-1.714765200000000107e-03
-1.573338500000000034e-03
-1.430687699999999953e-03
-1.293857000000000037e-03
-1.166761299999999986e-03
7.216236000000000005e-04
7.519348999999999825e-04
7.717171999999999574e-04
7.743669999999999807e-04
7.508738000000000478e-04
6.895691999999999707e-04
5.764499000000000185e-04
3.966490000000000033e-04
1.376888999999999956e-04
-2.052516000000000052e-04
-6.230320000000000346e-04
-1.088015199999999971e-03
-1.555235700000000103e-03
-1.971587500000000076e-03
-2.290577900000000111e-03
-2.485564699999999808e-03
-2.554684700000000013e-03
-2.516243999999999946e-03
-2.398967300000000216e-03
-2.232701000000000130e-03
-2.042633299999999964e-03
-1.847181899999999913e-03
-1.658274800000000002e-03
-1.482686100000000021e-03
-1.323554700000000028e-03
6.739285999999999497e-04
6.948994000000000438e-04
7.026384000000000319e-04
6.895576000000000266e-04
6.453105999999999469e-04
5.564909999999999952e-04
4.070146000000000180e-04
1.798969999999999888e-04
-1.387488999999999888e-04
-5.531658999999999752e-04
-1.050113400000000008e-03
-1.593467600000000092e-03
-2.126469199999999823e-03
-2.584399800000000084e-03
-2.913750000000000107e-03
-3.088047799999999853e-03
-3.111954699999999914e-03
-3.013378199999999785e-03
-2.830309999999999944e-03
-2.599543399999999869e-03
-2.350460799999999802e-03
-2.103400499999999798e-03
-1.870686199999999945e-03
-1.658623599999999899e-03
-1.469485200000000043e-03
6.164528999999999538e-04
6.264836000000000406e-04
6.204738000000000224e-04
5.899902999999999745e-04
5.236140999999999712e-04
4.066501000000000252e-04
2.216191000000000005e-04
-4.965310000000000069e-05
-4.214199999999999869e-04
-8.965225000000000277e-04
-1.457556499999999996e-03
-2.061145300000000007e-03
-2.641378199999999850e-03
-3.125304399999999892e-03
-3.455235899999999950e-03
-3.606043499999999919e-03
-3.588191599999999894e-03
-3.437250399999999904e-03
-3.198293100000000090e-03
-2.913304600000000012e-03
-2.614762799999999915e-03
-2.324404700000000205e-03
-2.054815199999999835e-03
-1.811911499999999987e-03
-1.597271500000000104e-03
5.509433999999999469e-04
5.490166000000000317e-04
5.283774000000000413e-04
4.800033999999999790e-04
3.918413000000000256e-04
2.486058999999999773e-04
3.244759999999999745e-05
-2.746733000000000117e-04
-6.859852000000000267e-04
-1.202040699999999945e-03
-1.801766499999999955e-03
-2.437176000000000099e-03
-3.037910300000000105e-03
-3.528119599999999904e-03
-3.849688600000000186e-03
-3.979470700000000381e-03
-3.931437000000000299e-03
-3.745079699999999921e-03
-3.468968199999999859e-03
-3.147737800000000117e-03
-2.815591399999999803e-03
-2.495186300000000034e-03
-2.199424800000000010e-03
-1.934143500000000101e-03
4.796765999999999942e-04
4.654931999999999972e-04
4.303193999999999986e-04
3.648915999999999878e-04
2.570760999999999966e-04
9.182909999999999803e-05
-1.479209999999999954e-04
-4.786869000000000128e-04
-9.113519000000000047e-04
-1.443596600000000103e-03
-2.051749700000000086e-03
-2.686624299999999972e-03
-3.278832699999999992e-03
-3.755342400000000191e-03
-4.061280700000000250e-03
-4.175674400000000015e-03
-4.113104799999999645e-03
-3.912676599999999685e-03
-3.622432499999999819e-03
-3.286831899999999914e-03
-2.940287599999999966e-03
-2.605861699999999920e-03
-2.296862199999999844e-03
-2.019421799999999816e-03
4.052484999999999876e-04
3.792674999999999801e-04
3.306348999999999877e-04
2.502377000000000182e-04
1.264391000000000072e-04
-5.476120000000000011e-05
-3.086418999999999968e-04
-6.490918000000000252e-04
-1.083808500000000077e-03
-1.607589700000000002e-03
-2.195642199999999888e-03
-2.800868399999999897e-03
-3.359455099999999941e-03
-3.805683399999999945e-03
-4.090632500000000032e-03
-4.195499099999999704e-03
-4.133096600000000370e-03
-3.938603199999999790e-03
-3.656101299999999811e-03
-3.327310699999999795e-03
-2.985343300000000213e-03
-2.653032200000000115e-03
-2.344038699999999916e-03
-2.065055599999999873e-03
2.936894000000000006e-04
2.335100000000000055e-04
1.411922000000000134e-04
6.099799999999999603e-06
-1.840987999999999999e-04
-4.422068999999999826e-04
-7.789165000000000021e-04
-1.198557899999999924e-03
-1.693604399999999949e-03
-2.239689400000000139e-03
-2.794265000000000203e-03
-3.301949000000000203e-03
-3.706802999999999834e-03
-3.967238399999999804e-03
-4.066609500000000280e-03
-4.014703700000000347e-03
-3.840748699999999970e-03
-3.582671200000000014e-03
-3.277570699999999854e-03
-2.955941499999999861e-03
-2.639656000000000207e-03
-2.342464099999999865e-03
-2.071661199999999883e-03
2.117630999999999919e-04
1.425246000000000076e-04
4.188289999999999841e-05
-9.944160000000000011e-05
-2.917473999999999979e-04
-5.450897000000000337e-04
-8.669332000000000297e-04
-1.258626699999999907e-03
-1.711209300000000096e-03
-2.202025199999999884e-03
-2.694420199999999956e-03
-3.142468399999999960e-03
-3.500559900000000182e-03
-3.734634499999999867e-03
-3.830213700000000086e-03
-3.793867199999999881e-03
-3.648356800000000007e-03
-3.424603999999999929e-03
-3.154074199999999835e-03
-2.863701499999999917e-03
-2.573688599999999962e-03
-2.297449699999999824e-03
1.358917000000000122e-04
6.034660000000000257e-05
-4.491940000000000228e-05
-1.876509999999999962e-04
-3.760196999999999737e-04
-6.174196000000000068e-04
-9.164639999999999722e-04
-1.272225000000000092e-03
-1.675232499999999977e-03
-2.105369800000000003e-03
-2.532213299999999841e-03
-2.918953900000000046e-03
-3.229559099999999936e-03
-3.436905399999999784e-03
-3.528660600000000074e-03
-3.508645900000000213e-03
-3.393686700000000164e-03
-3.207908800000000039e-03
-2.976938399999999856e-03
-2.723669499999999914e-03
-2.466090399999999912e-03
-1.138200000000000046e-05
-1.178482000000000010e-04
-2.578489999999999905e-04
-4.375512999999999928e-04
-6.620209000000000163e-04
-9.336017999999999964e-04
-1.249866500000000038e-03
-1.601584899999999954e-03
-1.971539799999999856e-03
-2.335176500000000176e-03
-2.663704600000000016e-03
-2.929282000000000066e-03
-3.110744500000000093e-03
-3.197808800000000173e-03
-3.192260100000000184e-03
-3.106021000000000042e-03
-2.957261499999999828e-03
-2.766156100000000118e-03
-2.551518999999999922e-03
-2.328824399999999874e-03
-1.767620999999999928e-04
-3.108222999999999802e-04
-4.785929999999999763e-04
-6.832582000000000239e-04
-9.255150000000000182e-04
-1.202116800000000091e-03
-1.504570399999999916e-03
-1.818550499999999895e-03
-2.124638400000000010e-03
-2.400689899999999995e-03
-2.625509099999999863e-03
-2.782815599999999886e-03
-2.864196900000000150e-03
-2.870088399999999942e-03
-2.808646699999999951e-03
-2.693176399999999953e-03
-2.539126000000000057e-03
-2.361519299999999960e-03
-3.483294000000000060e-04
-5.022708999999999551e-04
-6.860269999999999693e-04
-8.992012999999999655e-04
-1.138243799999999993e-03
-1.395656199999999961e-03
-1.659767900000000016e-03
-1.915437700000000108e-03
-2.145817600000000155e-03
-2.334921399999999921e-03
-2.470342700000000176e-03
-2.545306299999999886e-03
-2.559442700000000119e-03
-2.518162000000000005e-03
-2.430990699999999866e-03
-2.309498899999999980e-03
-5.119793999999999994e-04
-6.750407000000000369e-04
-8.607658999999999710e-04
-1.065646599999999942e-03
-1.283258700000000033e-03
-1.504237100000000099e-03
-1.716884899999999992e-03
-1.908464799999999963e-03
-2.066980700000000185e-03
-2.183030800000000139e-03
-2.251222000000000206e-03
-2.270764399999999905e-03
-2.245140799999999909e-03
-2.181052299999999833e-03
-8.151262999999999955e-04
-9.898059999999999758e-04
-1.173077299999999903e-03
-1.357502999999999922e-03
-1.534095700000000098e-03
-1.693253000000000032e-03
-1.825989199999999936e-03
-1.925195800000000044e-03
-1.986614399999999964e-03
-2.009281800000000187e-03
7.007279999999999629e-04
6.468075999999999904e-04
8.852840999999999965e-04
8.696465999999999485e-04
8.413849000000000154e-04
8.002766000000000350e-04
7.469258000000000104e-04
6.828217000000000357e-04
6.102596999999999536e-04
5.321225999999999864e-04
4.515588999999999974e-04
3.716314999999999875e-04
9.493885999999999992e-04
9.578958000000000047e-04
9.541264000000000472e-04
9.362612999999999665e-04
9.030569000000000443e-04
8.541465000000000255e-04
7.902846000000000263e-04
7.134481999999999500e-04
6.267274000000000195e-04
5.339947000000000053e-04
4.394191999999999890e-04
3.469472000000000246e-04
2.598756999999999825e-04
1.806002999999999927e-04
9.948362999999999130e-04
1.017130900000000077e-03
1.027591299999999893e-03
1.023486400000000020e-03
1.002397799999999979e-03
9.626192000000000212e-04
9.035974000000000436e-04
8.263087000000000123e-04
7.334276999999999507e-04
6.291702999999999619e-04
5.187860999999999558e-04
4.078148999999999772e-04
3.013167000000000081e-04
2.032841000000000075e-04
1.163524999999999943e-04
4.180879999999999856e-05
1.021569200000000018e-03
1.057699199999999904e-03
1.083424599999999920e-03
1.095301099999999948e-03
1.089817099999999903e-03
1.063796699999999904e-03
1.014951299999999933e-03
9.425174999999999829e-04
8.478287000000000366e-04
7.345853999999999752e-04
6.086177000000000123e-04
4.770924000000000063e-04
3.473648000000000187e-04
2.258425000000000048e-04
1.171998000000000023e-04
2.409750000000000095e-05
-5.264969999999999839e-05
-1.136410000000000051e-04
1.027252100000000017e-03
1.075850499999999894e-03
1.116245299999999970e-03
1.144584699999999945e-03
1.156545199999999994e-03
1.147648100000000062e-03
1.113788400000000024e-03
1.051992000000000075e-03
9.613278999999999748e-04
8.437546000000000412e-04
7.045286999999999687e-04
5.518184999999999887e-04
3.954418999999999925e-04
2.450910999999999953e-04
1.086803000000000037e-04
-8.641199999999999530e-06
-1.046422999999999993e-04
-1.795234999999999897e-04
-2.351347000000000105e-04
-2.741978000000000058e-04
1.011551999999999981e-03
1.070048600000000081e-03
1.122975800000000071e-03
1.166401700000000092e-03
1.195551599999999980e-03
1.204991799999999931e-03
1.189043999999999995e-03
1.142499200000000013e-03
1.061662500000000063e-03
9.456405999999999666e-04
7.975534999999999526e-04
6.250922000000000119e-04
4.398318000000000128e-04
2.551941000000000170e-04
8.371940000000000349e-05
-6.525410000000000260e-05
-1.866868000000000097e-04
-2.796151999999999991e-04
-3.460852999999999846e-04
-3.898562000000000164e-04
-4.152979000000000002e-04
-4.266505999999999771e-04
9.761127999999999558e-04
1.041142299999999995e-03
1.103309200000000085e-03
1.158906099999999946e-03
1.203078900000000093e-03
1.229837199999999969e-03
1.232296799999999968e-03
1.203262600000000069e-03
1.136244200000000081e-03
1.026935899999999961e-03
8.750230999999999808e-04
6.858362999999999916e-04
4.709695000000000179e-04
2.469610000000000230e-04
3.196730000000000139e-05
-1.583409999999999939e-04
-3.138330000000000156e-04
-4.308129999999999967e-04
-5.109589000000000318e-04
-5.593145000000000538e-04
-5.823182000000000315e-04
-5.863841999999999752e-04
-5.771206999999999986e-04
9.920961000000000710e-04
1.059573700000000090e-03
1.123410499999999987e-03
1.179046499999999954e-03
1.220385500000000000e-03
1.239783699999999966e-03
1.228388499999999916e-03
1.177012600000000055e-03
1.077675699999999966e-03
9.258050999999999564e-04
7.227950000000000347e-04
4.781286999999999950e-04
2.097233000000000051e-04
-5.873230000000000009e-05
-3.032167000000000000e-04
-5.053031999999999836e-04
-6.557152999999999593e-04
-7.542949999999999872e-04
-8.073676000000000116e-04
-8.243785000000000219e-04
-8.151858000000000107e-04
-7.884701000000000253e-04
-7.511087000000000275e-04
-7.081534999999999479e-04
9.274106000000000277e-04
9.961972999999999835e-04
1.063908699999999933e-03
1.126608899999999953e-03
1.178608000000000043e-03
1.212140599999999993e-03
1.217300200000000004e-03
1.182511299999999908e-03
1.095873200000000098e-03
9.476072000000000098e-04
7.335030000000000413e-04
4.586538000000000030e-04
1.399849999999999955e-04
-1.944869999999999965e-04
-5.110507000000000027e-04
-7.790892000000000216e-04
-9.790871000000000469e-04
-1.105801299999999892e-03
-1.165960699999999978e-03
-1.173076199999999961e-03
-1.142413199999999960e-03
-1.087724900000000073e-03
-1.019837000000000000e-03
-9.464887000000000170e-04
-8.727871000000000110e-04
9.189099999999999959e-04
9.863123999999999589e-04
1.051438100000000059e-03
1.109437700000000032e-03
1.153174199999999934e-03
1.172715499999999909e-03
1.155156299999999950e-03
1.085235400000000069e-03
9.473552999999999792e-04
7.294702000000000347e-04
4.286108999999999861e-04
5.651579999999999852e-05
-3.575812000000000044e-04
-7.702936000000000071e-04
-1.134565500000000093e-03
-1.413452799999999994e-03
-1.589898800000000018e-03
-1.667611999999999957e-03
-1.664491300000000033e-03
-1.603877400000000000e-03
-1.507894299999999960e-03
-1.394147600000000082e-03
-1.275034699999999998e-03
-1.158429699999999904e-03
-1.048810000000000063e-03
8.974521000000000061e-04
9.608057999999999616e-04
1.020048099999999996e-03
1.069218399999999954e-03
1.099433500000000091e-03
1.098131399999999940e-03
1.048708200000000043e-03
9.312591999999999962e-04
7.254550999999999925e-04
4.164544999999999749e-04
3.543700000000000054e-06
-4.913581999999999672e-04
-1.020852299999999930e-03
-1.520177900000000033e-03
-1.925962700000000052e-03
-2.196708999999999815e-03
-2.323127700000000156e-03
-2.323817100000000191e-03
-2.232130000000000138e-03
-2.083242999999999814e-03
-1.906400599999999923e-03
-1.722405999999999894e-03
-1.544281800000000052e-03
-1.379132199999999996e-03
-1.230069000000000084e-03
8.039718999999999859e-04
8.623749000000000432e-04
9.188004999999999523e-04
9.686249999999999765e-04
1.004626100000000034e-03
1.015978999999999971e-03
9.872225000000000097e-04
8.976688999999999936e-04
7.222494000000000310e-04
4.353512000000000137e-04
1.917890000000000030e-05
-5.236556999999999540e-04
-1.157925800000000026e-03
-1.813171099999999957e-03
-2.398777500000000111e-03
-2.833899600000000171e-03
-3.075628400000000092e-03
-3.127930399999999823e-03
-3.029183500000000133e-03
-2.830870200000000156e-03
-2.580574700000000214e-03
-2.314022000000000214e-03
-2.054172200000000011e-03
-1.813683300000000064e-03
-1.598114400000000008e-03
-1.408662200000000047e-03
7.629686999999999580e-04
8.137854999999999828e-04
8.604418000000000396e-04
8.974287999999999753e-04
9.162096999999999906e-04
9.040161000000000334e-04
8.425782000000000367e-04
7.073567000000000439e-04
4.685329999999999812e-04
9.583670000000000350e-05
-4.306180999999999963e-04
-1.103753500000000023e-03
-1.873697899999999996e-03
-2.645922700000000009e-03
-3.304288099999999877e-03
-3.752747600000000058e-03
-3.950392500000000223e-03
-3.917233200000000068e-03
-3.712446700000000127e-03
-3.405072700000000112e-03
-3.053810499999999855e-03
-2.699589999999999976e-03
-2.366593699999999974e-03
-2.066547699999999980e-03
-1.803173099999999963e-03
-1.575630099999999990e-03
7.115494000000000419e-04
7.526759000000000487e-04
7.870680000000000341e-04
8.083358999999999597e-04
8.067175999999999687e-04
7.677588999999999855e-04
6.709332000000000360e-04
4.888603000000000262e-04
1.885827000000000130e-04
-2.626632999999999963e-04
-8.846373999999999948e-04
-1.664684700000000064e-03
-2.539814100000000081e-03
-3.396410600000000085e-03
-4.100029699999999631e-03
-4.545652100000000320e-03
-4.696577900000000264e-03
-4.586631800000000141e-03
-4.291208599999999686e-03
-3.892448100000000209e-03
-3.457141799999999786e-03
-3.029934000000000186e-03
-2.635812200000000032e-03
-2.285724900000000136e-03
-1.981936799999999953e-03
-1.721992299999999983e-03
6.511342000000000041e-04
6.809280000000000237e-04
7.012182999999999741e-04
7.048408999999999621e-04
6.810656000000000002e-04
6.142813999999999696e-04
4.826939000000000034e-04
2.577685000000000241e-04
-9.402280000000000381e-05
-6.046486000000000438e-04
-1.290724299999999923e-03
-2.133420400000000158e-03
-3.061056300000000036e-03
-3.951147599999999677e-03
-4.663568899999999753e-03
-5.093000200000000373e-03
-5.207320300000000193e-03
-5.047413899999999599e-03
-4.695790200000000102e-03
-4.240326699999999796e-03
-3.751712600000000133e-03
-3.276778100000000190e-03
-2.841373700000000141e-03
-2.456428200000000152e-03
-2.123681899999999966e-03
-1.839926900000000065e-03
5.837149999999999500e-04
6.011830999999999599e-04
6.064358999999999852e-04
5.917510999999999865e-04
5.458422000000000100e-04
4.526830999999999824e-04
2.904736000000000102e-04
3.152019999999999681e-05
-3.554494999999999855e-04
-8.982912999999999488e-04
-1.607921300000000105e-03
-2.459895499999999874e-03
-3.379989999999999817e-03
-4.248698399999999674e-03
-4.933566999999999814e-03
-5.337201100000000219e-03
-5.431266100000000166e-03
-5.255700500000000039e-03
-4.890011300000000199e-03
-4.419743500000000019e-03
-3.914874700000000284e-03
-3.422724199999999887e-03
-2.970074799999999904e-03
-2.568709099999999784e-03
-2.220934899999999802e-03
-1.923817499999999929e-03
5.165831999999999976e-04
5.068810999999999673e-04
4.745977999999999981e-04
4.084027000000000057e-04
2.926843000000000261e-04
1.069137999999999995e-04
-1.739432999999999919e-04
-5.766279000000000023e-04
-1.122654799999999896e-03
-1.816218099999999903e-03
-2.629127800000000039e-03
-3.490626100000000179e-03
-4.293613899999999817e-03
-4.922834499999999801e-03
-5.294232900000000151e-03
-5.382441200000000030e-03
-5.220652999999999579e-03
-4.877797700000000361e-03
-4.430566300000000034e-03
-3.944027499999999860e-03
-3.464041100000000203e-03
-3.017942000000000020e-03
-2.618840999999999791e-03
-2.270430300000000033e-03
-1.970913300000000021e-03
4.304339000000000125e-04
4.068333999999999731e-04
3.589002999999999898e-04
2.757853999999999904e-04
1.430551000000000121e-04
-5.751449999999999965e-05
-3.470519999999999833e-04
-7.465554000000000114e-04
-1.270550199999999916e-03
-1.917175099999999946e-03
-2.657070699999999897e-03
-3.427287199999999850e-03
-4.138094800000000420e-03
-4.695445099999999948e-03
-5.030613500000000356e-03
-5.120914699999999653e-03
-4.990551000000000188e-03
-4.694389700000000006e-03
-4.296550199999999743e-03
-3.854137000000000101e-03
-3.409586400000000177e-03
-2.989874400000000140e-03
-2.609293800000000215e-03
-2.273216700000000017e-03
-1.981470899999999806e-03
3.458587999999999962e-04
3.102024999999999900e-04
2.494784999999999798e-04
1.537688000000000108e-04
1.038479999999999923e-05
-1.959677000000000109e-04
-4.819930999999999847e-04
-8.628401999999999860e-04
-1.346736799999999909e-03
-1.927475500000000062e-03
-2.576930600000000050e-03
-3.242079699999999946e-03
-3.851399699999999947e-03
-4.331612000000000309e-03
-4.628704600000000183e-03
-4.722790800000000420e-03
-4.629630600000000235e-03
-4.390066399999999897e-03
-4.054725500000000080e-03
-3.671202399999999848e-03
-3.276953600000000189e-03
-2.897444299999999990e-03
-2.547510199999999860e-03
-2.233989999999999934e-03
2.201538000000000063e-04
1.499779000000000129e-04
4.631250000000000086e-05
-1.014803999999999983e-04
-3.055770000000000187e-04
-5.783847999999999854e-04
-9.298934000000000236e-04
-1.363445200000000090e-03
-1.870413399999999943e-03
-2.425553400000000134e-03
-2.986002099999999788e-03
-3.496694199999999912e-03
-3.902279399999999954e-03
-4.161462099999999921e-03
-4.257311399999999871e-03
-4.199015199999999587e-03
-4.015445000000000299e-03
-3.744790999999999918e-03
-3.425006899999999844e-03
-3.087720600000000166e-03
-2.755876300000000088e-03
-2.444025700000000082e-03
-2.159940400000000087e-03
1.389112000000000127e-04
6.268029999999999685e-05
-4.455249999999999738e-05
-1.913217999999999950e-04
-3.868532000000000047e-04
-6.398079999999999566e-04
-9.560899000000000090e-04
-1.335704600000000046e-03
-1.769202600000000089e-03
-2.235003699999999968e-03
-2.699461900000000095e-03
-3.121142800000000200e-03
-3.459053900000000001e-03
-3.682200799999999895e-03
-3.776591499999999886e-03
-3.746895799999999926e-03
-3.612722200000000137e-03
-3.401869200000000142e-03
-3.143517900000000059e-03
-2.863355900000000027e-03
-2.581181599999999871e-03
-2.310524100000000032e-03
-2.059461399999999980e-03
-1.142750000000000028e-05
-1.184767999999999970e-04
-2.599837000000000025e-04
-4.426117999999999828e-04
-6.720164999999999516e-04
-9.511355000000000417e-04
-1.277972000000000049e-03
-1.643332300000000055e-03
-2.029409299999999916e-03
-2.410318600000000040e-03
-2.755323999999999968e-03
-3.034418899999999971e-03
-3.224615899999999993e-03
-3.314642100000000056e-03
-3.306341999999999875e-03
-3.212613599999999785e-03
-3.053140000000000194e-03
-2.849710899999999963e-03
-2.622522500000000131e-03
-2.388032100000000036e-03
-2.158248299999999866e-03
-1.763581000000000014e-04
-3.096468999999999914e-04
-4.768686999999999969e-04
-6.814227000000000175e-04
-9.242551999999999799e-04
-1.202359299999999952e-03
-1.507399399999999898e-03
-1.825043799999999990e-03
-2.135637899999999999e-03
-2.416563999999999952e-03
-2.645989899999999940e-03
-2.806984299999999884e-03
-2.890640900000000183e-03
-2.897183399999999926e-03
-2.834867100000000063e-03
-2.717335700000000215e-03
-2.560492199999999784e-03
-2.379805699999999833e-03
-2.188540499999999840e-03
-3.431576999999999891e-04
-4.939634999999999946e-04
-6.740891999999999631e-04
-8.832472000000000500e-04
-1.118081799999999992e-03
-1.371370599999999999e-03
-1.631773900000000081e-03
-1.884482399999999960e-03
-2.112911299999999971e-03
-2.301206300000000187e-03
-2.436934400000000112e-03
-2.513154300000000185e-03
-2.529249400000000043e-03
-2.490368900000000055e-03
-2.405816500000000028e-03
-2.286999400000000199e-03
-2.145527099999999972e-03
-6.552053999999999864e-04
-8.341846999999999891e-04
-1.031622000000000051e-03
-1.241445600000000080e-03
-1.454782200000000018e-03
-1.660514199999999939e-03
-1.846481299999999963e-03
-2.001156699999999834e-03
-2.115408300000000148e-03
-2.183872099999999931e-03
-2.205561200000000048e-03
-2.183600099999999985e-03
-2.124253300000000094e-03
-2.035599199999999984e-03
-9.472064000000000525e-04
-1.121037999999999982e-03
-1.296094399999999942e-03
-1.464033700000000023e-03
-1.615917199999999986e-03
-1.743332599999999986e-03
-1.839553500000000019e-03
-1.900451700000000072e-03
-1.924935600000000002e-03
-1.914837800000000019e-03
-1.874334100000000104e-03
9.174911999999999478e-04
8.956005000000000389e-04
8.612496000000000084e-04
8.147806999999999966e-04
7.573461000000000299e-04
6.908612999999999647e-04
6.178352999999999493e-04
5.411040999999999681e-04
1.011835399999999911e-03
1.015260200000000102e-03
1.005311000000000052e-03
9.805695999999999163e-04
9.403839999999999465e-04
8.851138000000000365e-04
8.162564999999999665e-04
7.363922999999999866e-04
6.489265000000000354e-04
5.576803999999999876e-04
4.664262999999999764e-04
3.784796000000000210e-04
1.054487900000000093e-03
1.084942100000000015e-03
1.104616799999999944e-03
1.110714399999999978e-03
1.100630599999999999e-03
1.072329899999999994e-03
1.024776100000000063e-03
9.583267999999999604e-04
8.749581999999999672e-04
7.782000999999999762e-04
6.727407000000000352e-04
5.637829999999999925e-04
4.563308000000000186e-04
3.545932999999999919e-04
2.616351000000000050e-04
1.792928000000000056e-04
1.093854900000000097e-03
1.140396300000000003e-03
1.178012200000000051e-03
1.203240300000000054e-03
1.212398499999999902e-03
1.201936700000000042e-03
1.168957399999999902e-03
1.111860699999999910e-03
1.030977900000000069e-03
9.289657999999999683e-04
8.107359000000000180e-04
6.828322999999999641e-04
5.524024000000000425e-04
4.260852999999999776e-04
3.091526000000000256e-04
2.050888000000000006e-04
1.156037000000000058e-04
4.093840000000000093e-05
1.111540999999999961e-03
1.173070299999999901e-03
1.228471799999999916e-03
1.274006399999999973e-03
1.305292100000000032e-03
1.317522599999999995e-03
1.305904600000000080e-03
1.266366699999999911e-03
1.196514600000000072e-03
1.096640299999999957e-03
9.704041000000000489e-04
8.247642999999999598e-04
6.689722999999999850e-04
5.128980000000000214e-04
3.652937000000000089e-04
2.325799999999999992e-04
1.184188999999999988e-04
2.396549999999999950e-05
-5.149989999999999798e-05
-1.098547999999999972e-04
1.106046500000000023e-03
1.179931699999999970e-03
1.251011700000000029e-03
1.315681300000000071e-03
1.369358499999999944e-03
1.406527099999999898e-03
1.420969499999999962e-03
1.406298500000000007e-03
1.356905500000000001e-03
1.269349400000000048e-03
1.143940499999999928e-03
9.858917000000000461e-04
8.052461999999999814e-04
6.152120999999999978e-04
4.294073000000000247e-04
2.591609999999999942e-04
1.118854999999999980e-04
-9.175799999999999460e-06
-1.041834999999999962e-04
-1.755221000000000114e-04
-2.266810999999999869e-04
-2.614262000000000009e-04
1.160557700000000017e-03
1.243595199999999968e-03
1.324057599999999999e-03
1.397622199999999908e-03
1.458648699999999911e-03
1.500191799999999950e-03
1.514259800000000060e-03
1.492473600000000008e-03
1.427325300000000007e-03
1.314159700000000095e-03
1.153597099999999947e-03
9.533955999999999898e-04
7.283208000000000217e-04
4.973144999999999562e-04
2.789498000000000173e-04
8.733649999999999974e-05
-6.984119999999999803e-05
-1.909656000000000135e-04
-2.787423000000000027e-04
-3.381842999999999937e-04
-3.750032999999999947e-04
-3.946086999999999815e-04
1.117099199999999938e-03
1.207372900000000049e-03
1.298738999999999926e-03
1.387492400000000072e-03
1.468357900000000086e-03
1.534281599999999957e-03
1.576422600000000054e-03
1.584493100000000003e-03
1.547653400000000099e-03
1.456237399999999902e-03
1.304551099999999965e-03
1.094442499999999895e-03
8.380974999999999493e-04
5.575893999999999642e-04
2.799532999999999883e-04
2.978660000000000040e-05
-1.766384999999999928e-04
-3.331818999999999753e-04
-4.419892999999999934e-04
-5.100877000000000189e-04
-5.462590000000000024e-04
-5.589825999999999562e-04
-5.554340000000000492e-04
-5.412080999999999793e-04
1.053793400000000054e-03
1.146299900000000019e-03
1.242937599999999936e-03
1.340866100000000054e-03
1.435584200000000017e-03
1.520478499999999974e-03
1.586486399999999936e-03
1.622074000000000042e-03
1.613787499999999944e-03
1.547669800000000054e-03
1.411859199999999969e-03
1.200625600000000074e-03
9.193963000000000526e-04
5.884157999999999576e-04
2.410791000000000073e-04
-8.476599999999999446e-05
-3.584336000000000032e-04
-5.639692999999999876e-04
-7.004175000000000071e-04
-7.769956000000000388e-04
-8.072507000000000467e-04
-8.047781999999999852e-04
-7.810354000000000472e-04
-7.447098000000000302e-04
-7.019211000000000244e-04
1.066324300000000107e-03
1.162695299999999933e-03
1.263400899999999900e-03
1.365007899999999986e-03
1.461890399999999897e-03
1.545523999999999943e-03
1.603911699999999987e-03
1.621511900000000049e-03
1.580190399999999900e-03
1.461739600000000082e-03
1.252308300000000039e-03
9.486400999999999775e-04
5.648723000000000025e-04
1.360807000000000065e-04
-2.870702999999999948e-04
-6.536989999999999901e-04
-9.296684999999999845e-04
-1.105172499999999922e-03
-1.190534800000000093e-03
-1.206375599999999970e-03
-1.174882900000000013e-03
-1.114911400000000033e-03
-1.040418900000000075e-03
-9.607770000000000069e-04
-8.817757000000000286e-04
-8.066857999999999668e-04
9.743193999999999943e-04
1.065734800000000095e-03
1.163371000000000067e-03
1.264928000000000016e-03
1.366140299999999948e-03
1.459841500000000087e-03
1.534861999999999902e-03
1.575028900000000108e-03
1.558897000000000060e-03
1.461265300000000105e-03
1.257689700000000008e-03
9.325728999999999833e-04
4.896867000000000494e-04
-3.873709999999999881e-05
-5.913541999999999497e-04
-1.092269600000000083e-03
-1.477596000000000074e-03
-1.717345600000000101e-03
-1.818251400000000031e-03
-1.810292200000000089e-03
-1.729950799999999903e-03
-1.609207899999999958e-03
-1.471456199999999961e-03
-1.331736000000000031e-03
-1.198648000000000075e-03
-1.076430699999999987e-03
-9.666263000000000459e-04
9.601074000000000023e-04
1.050166800000000003e-03
1.145811899999999925e-03
1.244145400000000023e-03
1.339794700000000076e-03
1.423608499999999989e-03
1.481006300000000091e-03
1.490309200000000060e-03
1.422005899999999930e-03
1.240851899999999937e-03
9.133687000000000359e-04
4.222178999999999949e-04
-2.154926000000000042e-04
-9.357855000000000209e-04
-1.635147599999999977e-03
-2.203806300000000096e-03
-2.569180300000000004e-03
-2.718994599999999956e-03
-2.690611900000000178e-03
-2.542468200000000053e-03
-2.329895399999999932e-03
-2.094018699999999813e-03
-1.860697199999999983e-03
-1.643853700000000046e-03
-1.449501800000000014e-03
-1.278988499999999954e-03
-1.131195999999999894e-03
9.326701999999999866e-04
1.018388799999999901e-03
1.108297399999999978e-03
1.198697299999999973e-03
1.282839399999999947e-03
1.349210800000000049e-03
1.379244499999999910e-03
1.344803099999999918e-03
1.206725199999999923e-03
9.173955999999999821e-04
4.319519000000000071e-04
-2.685591999999999884e-04
-1.147250999999999957e-03
-2.094411100000000050e-03
-2.949095100000000136e-03
-3.562151799999999785e-03
-3.861069600000000164e-03
-3.867207799999999949e-03
-3.661450699999999926e-03
-3.336348600000000036e-03
-2.966153500000000189e-03
-2.598766099999999784e-03
-2.259806200000000122e-03
-1.959883899999999811e-03
-1.700881399999999927e-03
-1.480244900000000008e-03
-1.293561900000000020e-03
8.918179000000000254e-04
9.700696000000000405e-04
1.050308700000000036e-03
1.127843400000000038e-03
1.194343100000000088e-03
1.235740400000000065e-03
1.229346700000000106e-03
1.140540100000000034e-03
9.206223999999999831e-04
5.098735000000000506e-04
-1.473536999999999915e-04
-1.069921599999999924e-03
-2.197103499999999900e-03
-3.367358500000000154e-03
-4.358368900000000358e-03
-4.984848499999999794e-03
-5.183813199999999857e-03
-5.019199999999999703e-03
-4.619032500000000083e-03
-4.108847900000000414e-03
-3.578859800000000046e-03
-3.081021900000000067e-03
-2.638889800000000004e-03
-2.258739699999999864e-03
-1.937827499999999993e-03
-1.669496799999999970e-03
-1.445988600000000035e-03
8.381724000000000119e-04
9.059873000000000188e-04
9.728522999999999555e-04
1.032955799999999954e-03
1.076317899999999902e-03
1.086420999999999958e-03
1.036950899999999898e-03
8.880605000000000400e-04
5.840408000000000275e-04
5.724310000000000086e-05
-7.533533000000000026e-04
-1.862047799999999977e-03
-3.184835600000000214e-03
-4.517589300000000342e-03
-5.593022399999999714e-03
-6.204682399999999695e-03
-6.303525100000000395e-03
-5.989203000000000235e-03
-5.425611999999999796e-03
-4.762155799999999960e-03
-4.100163000000000418e-03
-3.494151000000000028e-03
-2.965895100000000111e-03
-2.518263699999999990e-03
-2.144881099999999992e-03
-1.835837799999999942e-03
-1.580686399999999903e-03
7.732066000000000112e-04
8.280987000000000070e-04
8.785814000000000514e-04
9.177185999999999720e-04
9.340248000000000430e-04
9.090141000000000150e-04
8.139252999999999506e-04
6.061750000000000298e-04
2.276730999999999937e-04
-3.898083999999999794e-04
-1.303679500000000033e-03
-2.517915700000000149e-03
-3.931316300000000340e-03
-5.320786899999999965e-03
-6.407335600000000318e-03
-6.985688399999999583e-03
-7.018119599999999951e-03
-6.618801399999999814e-03
-5.964348300000000061e-03
-5.213241000000000402e-03
-4.472194900000000389e-03
-3.798119200000000042e-03
-3.213115600000000099e-03
-2.719179600000000158e-03
-2.308518600000000059e-03
-1.969681400000000172e-03
-1.690781799999999981e-03
6.991601999999999539e-04
7.394212000000000484e-04
7.716218999999999856e-04
7.878617999999999993e-04
7.755438000000000132e-04
7.150687999999999662e-04
5.769459999999999476e-04
3.190498999999999961e-04
-1.136964000000000046e-04
-7.822963000000000269e-04
-1.732146499999999900e-03
-2.953571500000000058e-03
-4.338467700000000170e-03
-5.672410899999999999e-03
-6.699054099999999894e-03
-7.234452300000000259e-03
-7.246465399999999814e-03
-6.840342299999999792e-03
-6.180841500000000023e-03
-5.419743000000000303e-03
-4.662817300000000192e-03
-3.969000599999999643e-03
-3.362950400000000103e-03
-2.848614900000000054e-03
-2.419333799999999913e-03
-2.064134799999999860e-03
-1.771194299999999909e-03
6.188352000000000479e-04
6.437220000000000008e-04
6.570947000000000159e-04
6.504100999999999546e-04
6.105673000000000046e-04
5.179568000000000279e-04
3.442639999999999958e-04
5.090500000000000135e-05
-4.097085000000000093e-04
-1.086004399999999925e-03
-2.007290599999999887e-03
-3.151610000000000002e-03
-4.414981999999999587e-03
-5.611811900000000276e-03
-6.529489799999999705e-03
-7.016410199999999903e-03
-7.042184299999999612e-03
-6.688875999999999850e-03
-6.093120599999999817e-03
-5.387836699999999819e-03
-4.671467299999999996e-03
-4.003131800000000323e-03
-3.410768599999999991e-03
-2.902039300000000023e-03
-2.473338700000000077e-03
-2.115867899999999881e-03
-1.819221200000000057e-03
5.353045999999999976e-04
5.450788000000000031e-04
5.404392999999999741e-04
5.126319999999999532e-04
4.487602999999999731e-04
3.303231000000000223e-04
1.318424999999999968e-04
-1.795067000000000071e-04
-6.413912000000000129e-04
-1.288026700000000080e-03
-2.133492800000000127e-03
-3.148359299999999982e-03
-4.240904900000000075e-03
-5.262555500000000094e-03
-6.049456199999999999e-03
-6.483948800000000068e-03
-6.536843799999999920e-03
-6.264281000000000016e-03
-5.769632499999999969e-03
-5.160813400000000342e-03
-4.523819899999999977e-03
-3.914903400000000096e-03
-3.364169499999999924e-03
-2.883152899999999810e-03
-2.472082600000000217e-03
-2.125294499999999965e-03
-1.834710200000000098e-03
4.474106000000000155e-04
4.267189000000000117e-04
3.810085000000000164e-04
2.982487999999999828e-04
1.619462000000000115e-04
-4.945930000000000264e-05
-3.620418000000000139e-04
-8.032735999999999522e-04
-1.394571899999999922e-03
-2.138595200000000147e-03
-3.003794599999999940e-03
-3.914449100000000001e-03
-4.757790300000000125e-03
-5.413362399999999824e-03
-5.793391400000000302e-03
-5.871065800000000237e-03
-5.680964299999999821e-03
-5.296107999999999892e-03
-4.798904700000000342e-03
-4.260185700000000339e-03
-3.730351600000000011e-03
-3.239541600000000066e-03
-2.802074800000000157e-03
-2.421716600000000177e-03
-2.096096500000000154e-03
-1.819825499999999912e-03
3.540870999999999797e-04
3.200778999999999734e-04
2.605037000000000043e-04
1.646932000000000040e-04
1.869749999999999844e-05
-1.947271999999999946e-04
-4.950284000000000325e-04
-9.007311000000000267e-04
-1.423379999999999914e-03
-2.058594999999999869e-03
-2.776628900000000042e-03
-3.517850700000000122e-03
-4.199485900000000070e-03
-4.735386900000000156e-03
-5.061657599999999993e-03
-5.155060199999999572e-03
-5.035000799999999818e-03
-4.750544800000000047e-03
-4.361688300000000386e-03
-3.923898099999999917e-03
-3.479844499999999903e-03
-3.057602999999999883e-03
-2.672680800000000034e-03
-2.331421699999999993e-03
-2.034303099999999927e-03
2.234515999999999868e-04
1.542646000000000002e-04
5.108049999999999993e-05
-9.734640000000000025e-05
-3.041178999999999974e-04
-5.829109000000000504e-04
-9.452304999999999822e-04
-1.395859200000000013e-03
-1.926945100000000037e-03
-2.512597799999999933e-03
-3.107319299999999982e-03
-3.651521300000000123e-03
-4.084483300000000400e-03
-4.360366699999999873e-03
-4.460019200000000031e-03
-4.393267900000000052e-03
-4.191893700000000160e-03
-3.898019700000000202e-03
-3.553336099999999855e-03
-3.192264499999999949e-03
-2.839396499999999844e-03
-2.509950400000000078e-03
-2.211695400000000204e-03
-1.947199200000000003e-03
1.385269999999999969e-04
6.370459999999999990e-05
-4.192750000000000133e-05
-1.870527999999999991e-04
-3.811663999999999764e-04
-6.333429999999999702e-04
-9.500325999999999476e-04
-1.331845300000000006e-03
-1.769835499999999938e-03
-2.242597600000000024e-03
-2.716106099999999850e-03
-3.147899600000000214e-03
-3.495459700000000045e-03
-3.726170699999999808e-03
-3.824831099999999925e-03
-3.795682299999999978e-03
-3.658737300000000116e-03
-3.442776700000000061e-03
-3.178149300000000007e-03
-2.891563299999999875e-03
-2.603516299999999832e-03
-2.327898000000000120e-03
-2.072881200000000011e-03
-1.116739999999999916e-05
-1.153652999999999981e-04
-2.531470999999999873e-04
-4.310879999999999899e-04
-6.548343999999999996e-04
-9.274473999999999999e-04
-1.247236600000000079e-03
-1.605522199999999920e-03
-1.985183100000000207e-03
-2.361074099999999933e-03
-2.703062500000000170e-03
-2.981420099999999851e-03
-3.173022199999999803e-03
-3.266111899999999801e-03
-3.261893999999999991e-03
-3.172678400000000093e-03
-3.017734700000000020e-03
-2.818628799999999945e-03
-2.595468599999999851e-03
-2.364690599999999792e-03
-2.138303700000000057e-03
-1.712991000000000080e-04
-2.992415000000000114e-04
-4.594957999999999790e-04
-6.552942000000000185e-04
-8.875731999999999676e-04
-1.153568399999999917e-03
-1.445519500000000098e-03
-1.750019700000000032e-03
-2.048598200000000067e-03
-2.319869999999999918e-03
-2.543006100000000033e-03
-2.701608099999999908e-03
-2.786729700000000181e-03
-2.798053600000000203e-03
-2.742986800000000048e-03
-2.634240099999999966e-03
-2.486870200000000034e-03
-2.315678399999999970e-03
-2.133461499999999861e-03
-1.950188999999999959e-03
-4.716155999999999777e-04
-6.413483999999999461e-04
-8.380253999999999742e-04
-1.058548199999999936e-03
-1.296302399999999964e-03
-1.540925600000000052e-03
-1.778873800000000099e-03
-1.994921599999999965e-03
-2.174403399999999802e-03
-2.305651399999999844e-03
-2.381917900000000195e-03
-2.402213900000000138e-03
-2.370892099999999912e-03
-2.296245699999999949e-03
-2.188659199999999985e-03
-2.058852600000000109e-03
-1.916572600000000055e-03
-6.181698999999999918e-04
-7.841794000000000021e-04
-9.669122999999999954e-04
-1.160894599999999976e-03
-1.358174900000000060e-03
-1.548806900000000101e-03
-1.721889600000000090e-03
-1.867022700000000104e-03
-1.975854100000000012e-03
-2.043310200000000073e-03
-2.068183199999999982e-03
-2.052956099999999912e-03
-2.002996500000000114e-03
-1.925410200000000080e-03
-1.827875899999999946e-03
-8.812727000000000234e-04
-1.040130200000000072e-03
-1.200098799999999976e-03
-1.353845300000000107e-03
-1.493505800000000062e-03
-1.611638299999999975e-03
-1.702215399999999898e-03
-1.761418899999999928e-03
-1.788046800000000006e-03
-1.783455499999999933e-03
-1.751097299999999956e-03
-1.399528300000000029e-03
-1.475277899999999972e-03
-1.527024699999999895e-03
-1.553672799999999922e-03
8.873349000000000210e-04
8.471999999999999930e-04
7.965340000000000007e-04
7.368945000000000443e-04
1.038644100000000060e-03
1.033897300000000087e-03
1.015409099999999920e-03
9.824371000000001013e-04
9.351099000000000303e-04
8.745477999999999889e-04
8.028380000000000542e-04
7.228431999999999913e-04
6.378786999999999478e-04
5.513294999999999871e-04
1.114194300000000094e-03
1.138798099999999928e-03
1.150943399999999894e-03
1.148108699999999920e-03
1.128240300000000074e-03
1.090134300000000084e-03
1.033793500000000035e-03
9.606483999999999553e-04
8.735425000000000004e-04
7.764407000000000079e-04
6.739165000000000520e-04
5.705508000000000194e-04
4.703967000000000087e-04
3.766233000000000232e-04
1.130278599999999956e-03
1.182045999999999965e-03
1.225997200000000006e-03
1.258835700000000054e-03
1.276997800000000041e-03
1.276959700000000059e-03
1.255701400000000046e-03
1.211293700000000027e-03
1.143489599999999908e-03
1.054129000000000004e-03
9.471574999999999656e-04
8.281699000000000005e-04
7.035745999999999840e-04
5.796291999999999764e-04
4.616307000000000049e-04
3.534397000000000103e-04
2.573713999999999733e-04
1.743640999999999930e-04
1.160013500000000057e-03
1.228597400000000029e-03
1.292446500000000000e-03
1.348040300000000104e-03
1.391166899999999977e-03
1.417084500000000049e-03
1.420890699999999979e-03
1.398157199999999984e-03
1.345823199999999966e-03
1.263180899999999905e-03
1.152617500000000048e-03
1.019720000000000001e-03
8.725399999999999909e-04
7.201932000000000082e-04
5.712837000000000340e-04
4.326765000000000103e-04
3.089063000000000074e-04
2.022020999999999931e-04
1.129135999999999958e-04
4.008969999999999667e-05
1.166379499999999894e-03
1.249511000000000024e-03
1.331677099999999895e-03
1.409608699999999933e-03
1.479030000000000102e-03
1.534621500000000072e-03
1.570140299999999919e-03
1.578824499999999893e-03
1.554226699999999937e-03
1.491547499999999922e-03
1.389275900000000018e-03
1.250551799999999976e-03
1.083465999999999943e-03
8.998384999999999804e-04
7.128072999999999744e-04
5.342130999999999963e-04
3.727660999999999952e-04
2.334209999999999866e-04
1.177634000000000048e-04
2.492390000000000035e-05
-4.742949999999999711e-05
-1.022769999999999967e-04
1.242923099999999979e-03
1.339849099999999979e-03
1.437097200000000095e-03
1.530892199999999911e-03
1.616095500000000072e-03
1.686066200000000022e-03
1.732691300000000064e-03
1.746769100000000047e-03
1.719036800000000014e-03
1.642102899999999975e-03
1.513144300000000006e-03
1.336399000000000050e-03
1.123876200000000066e-03
8.932559000000000072e-04
6.636339999999999687e-04
4.511518000000000060e-04
2.663690000000000242e-04
1.138977999999999990e-04
-6.382999999999999704e-06
-9.755920000000000607e-05
-1.640919999999999868e-04
-2.107095999999999926e-04
1.209717799999999966e-03
1.316432599999999963e-03
1.427874399999999903e-03
1.541171499999999988e-03
1.651971500000000079e-03
1.754111499999999992e-03
1.839350499999999966e-03
1.897267599999999995e-03
1.915557999999999931e-03
1.881201899999999970e-03
1.783147099999999935e-03
1.616639700000000032e-03
1.387704800000000077e-03
1.114650299999999901e-03
8.243140999999999620e-04
5.444277000000000187e-04
2.963792999999999831e-04
9.179359999999999473e-05
-6.679189999999999997e-05
-1.830341000000000032e-04
-2.636572999999999803e-04
-3.161355999999999823e-04
-3.473692999999999811e-04
-3.631250999999999837e-04
1.153263199999999926e-03
1.264158499999999989e-03
1.383443199999999894e-03
1.509362300000000089e-03
1.638731000000000042e-03
1.766450500000000092e-03
1.885015899999999958e-03
1.984103000000000082e-03
2.050348999999999922e-03
2.067564200000000102e-03
2.018011499999999847e-03
1.885964300000000059e-03
1.664397900000000059e-03
1.362739400000000101e-03
1.009681799999999959e-03
6.462080000000000038e-04
3.118595999999999847e-04
3.319579999999999818e-05
-1.796753000000000109e-04
-3.296376999999999966e-04
-4.266625000000000235e-04
-4.828411000000000009e-04
-5.094446999999999778e-04
-5.156991999999999566e-04
-5.085913999999999973e-04
1.188377700000000032e-03
1.308920299999999978e-03
1.439740300000000002e-03
1.579000799999999947e-03
1.723044800000000020e-03
1.865670000000000045e-03
1.997378699999999979e-03
2.104777799999999789e-03
2.170344500000000003e-03
2.172823800000000215e-03
2.088917500000000201e-03
1.898023100000000019e-03
1.592082799999999928e-03
1.188028199999999895e-03
7.320112999999999620e-04
2.859575999999999741e-04
-9.653019999999999949e-05
-3.869465999999999791e-04
-5.826852999999999894e-04
-6.975822999999999703e-04
-7.514429999999999677e-04
-7.632499000000000054e-04
-7.482637000000000099e-04
-7.175626999999999527e-04
-6.786573000000000388e-04
-6.363790999999999936e-04
1.096026800000000001e-03
1.211947600000000099e-03
1.340287899999999992e-03
1.480498999999999921e-03
1.630535000000000014e-03
1.785974299999999954e-03
1.938888499999999893e-03
2.076604000000000123e-03
2.180722200000000024e-03
2.226985700000000141e-03
2.186614199999999987e-03
2.029790000000000066e-03
1.733018000000000015e-03
1.293176600000000035e-03
7.449782000000000496e-04
1.640594999999999901e-04
-3.595501000000000187e-04
-7.609191000000000175e-04
-1.019835200000000037e-03
-1.152296799999999975e-03
-1.190546599999999997e-03
-1.167391100000000079e-03
-1.108956900000000008e-03
-1.033373100000000008e-03
-9.520765000000000044e-04
-8.717141999999999556e-04
-7.958047999999999468e-04
1.101258799999999980e-03
1.221110899999999951e-03
1.354418999999999935e-03
1.500582500000000041e-03
1.657129899999999897e-03
1.818445300000000016e-03
1.973983800000000174e-03
2.106113000000000169e-03
2.188213200000000119e-03
2.184444700000000034e-03
2.053187100000000188e-03
1.755793500000000021e-03
1.271430700000000065e-03
6.180121999999999916e-04
-1.288495000000000070e-04
-8.449573000000000153e-04
-1.409660999999999987e-03
-1.762163499999999921e-03
-1.912371300000000052e-03
-1.911165999999999950e-03
-1.816397699999999999e-03
-1.674504799999999892e-03
-1.516382900000000020e-03
-1.359982200000000099e-03
-1.214409700000000083e-03
-1.083396799999999981e-03
-9.676883999999999963e-04
1.092572100000000022e-03
1.213280800000000013e-03
1.347723799999999946e-03
1.495038100000000000e-03
1.652013900000000009e-03
1.811307799999999904e-03
1.958725900000000009e-03
2.069567000000000021e-03
2.104844900000000119e-03
2.010047499999999786e-03
1.721571400000000002e-03
1.186421800000000059e-03
3.953267000000000109e-04
-2.421890800000000166e-03
-2.945402800000000015e-03
-3.136990599999999862e-03
-3.070521100000000135e-03
-2.849051300000000116e-03
-2.558906399999999817e-03
-2.256118699999999904e-03
-1.970802700000000036e-03
-1.715970999999999946e-03
-1.494944000000000004e-03
-1.306212300000000057e-03
-1.146241299999999986e-03
-1.010948000000000012e-03
9.636339999999999966e-04
1.068624700000000028e-03
1.186503800000000049e-03
1.317374799999999901e-03
1.459810599999999958e-03
1.609460199999999909e-03
1.756674300000000055e-03
1.882664600000000027e-03
1.953876900000000097e-03
1.915346700000000084e-03
1.687049599999999915e-03
1.173244200000000004e-03
2.989414000000000242e-04
-4.906764299999999759e-03
-4.809205199999999625e-03
-4.419156100000000073e-03
-3.901826900000000039e-03
-3.367755999999999961e-03
-2.874570999999999810e-03
-2.444698600000000128e-03
-2.081430999999999906e-03
-1.779293300000000036e-03
-1.529722600000000057e-03
-1.323835700000000008e-03
-1.153602799999999939e-03
9.293562999999999911e-04
1.028845600000000008e-03
1.139847100000000073e-03
1.261895000000000074e-03
1.392628599999999909e-03
1.526097599999999901e-03
1.649805899999999938e-03
1.739766700000000034e-03
1.752891699999999933e-03
1.617287200000000090e-03
1.225638999999999939e-03
4.470658000000000184e-04
-8.170823000000000018e-04
-7.003090200000000078e-03
-6.543326799999999756e-03
-5.783491699999999784e-03
-4.946709900000000396e-03
-4.159169600000000092e-03
-3.473319500000000056e-03
-2.899880799999999918e-03
-2.430370800000000112e-03
-2.049563900000000213e-03
-1.741443299999999956e-03
-1.491636499999999914e-03
-1.288143399999999977e-03
8.827538999999999915e-04
9.736388999999999591e-04
1.073731000000000078e-03
1.181699700000000052e-03
1.293884199999999988e-03
1.402322099999999934e-03
1.491317000000000033e-03
1.531675699999999942e-03
1.471767099999999944e-03
1.225984999999999965e-03
6.668633999999999890e-04
-3.596381999999999747e-04
-8.877807600000000784e-03
-8.766362300000000302e-03
-7.995141500000000484e-03
-6.928565700000000049e-03
-5.829472700000000278e-03
-4.833353700000000107e-03
-3.987723900000000182e-03
-3.294071200000000046e-03
-2.734743699999999788e-03
-2.286846700000000170e-03
-1.928407499999999991e-03
-1.640599300000000066e-03
-1.408155599999999898e-03
8.249604000000000442e-04
9.044771000000000278e-04
9.900982000000000879e-04
1.079402500000000093e-03
1.167180199999999935e-03
1.243260200000000006e-03
1.288812299999999959e-03
1.270300499999999985e-03
1.130414599999999929e-03
7.770646000000000411e-04
7.771490000000000364e-05
-1.120052700000000092e-03
-2.908199800000000040e-03
-7.491295299999999914e-03
-9.253720899999999874e-03
-1.002233119999999984e-02
-9.786360299999999693e-03
-8.868271100000000087e-03
-7.653459799999999882e-03
-6.418046999999999641e-03
-5.304313100000000204e-03
-4.361627300000000401e-03
-3.590247799999999809e-03
-2.969823999999999815e-03
-2.474381600000000094e-03
-2.079075000000000107e-03
-1.762649600000000018e-03
-1.507899199999999896e-03
7.578185000000000086e-04
8.238345000000000216e-04
8.923292000000000420e-04
9.597085999999999681e-04
1.019199300000000032e-03
1.058606599999999901e-03
1.056658899999999906e-03
9.773438999999999651e-04
7.620643000000000078e-04
3.215094999999999954e-04
-4.649230000000000073e-04
-1.723404900000000085e-03
-3.508804199999999984e-03
-5.683454499999999847e-03
-7.848005899999999785e-03
-9.467271399999999462e-03
-1.016751309999999915e-02
-9.939089899999999783e-03
-9.060295799999999733e-03
-7.876895099999999678e-03
-6.650555199999999903e-03
-5.526488799999999812e-03
-4.562231299999999594e-03
-3.765089399999999812e-03
-3.119099699999999982e-03
-2.600456799999999961e-03
-2.185087899999999927e-03
-1.851769999999999979e-03
-1.582995200000000087e-03
6.837231999999999728e-04
7.349534999999999488e-04
7.848811000000000026e-04
8.288431999999999657e-04
8.587725000000000046e-04
8.610633000000000132e-04
8.132951999999999716e-04
6.795637000000000205e-04
4.048302000000000259e-04
-8.917089999999999695e-05
-8.991647999999999872e-04
-2.112797699999999831e-03
-3.745184999999999834e-03
-5.654840199999999588e-03
-7.511548699999999641e-03
-8.901366600000000170e-03
-9.536125200000000399e-03
-9.393798599999999416e-03
-8.674534200000000306e-03
-7.650399900000000308e-03
-6.546829900000000410e-03
-5.503512999999999808e-03
-4.586231900000000382e-03
-3.813083699999999902e-03
-3.176959699999999838e-03
-2.660149699999999912e-03
-2.242399099999999989e-03
-1.904734599999999929e-03
-1.630909399999999967e-03
6.414834000000000118e-04
6.727226000000000429e-04
6.936457999999999513e-04
6.953963000000000288e-04
6.638644000000000402e-04
5.770592999999999860e-04
4.017835999999999999e-04
9.044360000000000257e-05
-4.193701999999999781e-04
-1.196790699999999898e-03
-2.292675300000000197e-03
-3.693731999999999918e-03
-5.272500599999999614e-03
-6.779497800000000053e-03
-7.919562600000000854e-03
-8.484181800000000634e-03
-8.441203099999999154e-03
-7.916566599999999218e-03
-7.104367599999999658e-03
-6.183232299999999980e-03
-5.277513699999999974e-03
-4.455739999999999701e-03
-3.745241299999999950e-03
-3.148489600000000180e-03
-2.655486299999999973e-03
-2.251514599999999804e-03
-1.921337300000000060e-03
-1.651137900000000094e-03
5.470743000000000350e-04
5.607103999999999908e-04
5.606005000000000276e-04
5.377077999999999545e-04
4.783783000000000002e-04
3.624783999999999819e-04
1.614236999999999974e-04
-1.629311000000000095e-04
-6.563173000000000054e-04
-1.363193499999999911e-03
-2.306991200000000058e-03
-3.460326699999999919e-03
-4.718661199999999931e-03
-5.903553899999999625e-03
-6.813478900000000289e-03
-7.302699799999999575e-03
-7.336355900000000006e-03
-6.986339999999999738e-03
-6.381920999999999601e-03
-5.655346700000000136e-03
-4.909230900000000411e-03
-4.208062299999999929e-03
-3.583960900000000057e-03
-3.046929400000000007e-03
-2.594199399999999860e-03
-2.216896099999999918e-03
-1.904111599999999986e-03
-1.645082499999999922e-03
4.550132999999999825e-04
4.530595000000000217e-04
4.350663000000000056e-04
3.923892999999999804e-04
3.126151000000000082e-04
1.784254999999999945e-04
-3.326739999999999933e-05
-3.510462000000000001e-04
-8.059852000000000162e-04
-1.423797500000000037e-03
-2.210786499999999911e-03
-3.136013300000000097e-03
-4.118808199999999912e-03
-5.035217100000000286e-03
-5.750211300000000400e-03
-6.163670000000000433e-03
-6.243674099999999873e-03
-6.028186700000000287e-03
-5.599372200000000098e-03
-5.050206699999999597e-03
-4.460136600000000166e-03
-3.884848199999999842e-03
-3.356680300000000009e-03
-2.890038399999999858e-03
-2.487667299999999932e-03
-2.145796900000000035e-03
-1.857671399999999895e-03
3.530068999999999829e-04
3.208614000000000041e-04
2.637119000000000052e-04
1.708738999999999972e-04
2.824529999999999874e-05
-1.818071000000000097e-04
-4.794619999999999980e-04
-8.843831000000000131e-04
-1.409593599999999988e-03
-2.052224599999999833e-03
-2.783475599999999869e-03
-3.543353999999999861e-03
-4.246900300000000170e-03
-4.804154199999999784e-03
-5.146892299999999802e-03
-5.248653899999999699e-03
-5.127941500000000180e-03
-4.835317399999999703e-03
-4.433703300000000312e-03
-3.981634199999999589e-03
-3.524095100000000126e-03
-3.090439899999999820e-03
-2.696577999999999822e-03
-2.348704499999999806e-03
-2.046893900000000023e-03
-1.787870800000000053e-03
2.202015999999999891e-04
1.536447000000000030e-04
5.425150000000000057e-05
-8.892790000000000623e-05
-2.887130000000000122e-04
-5.585889999999999606e-04
-9.100815999999999637e-04
-1.348368800000000018e-03
-1.866519600000000065e-03
-2.440125400000000156e-03
-3.025505200000000016e-03
-3.564684199999999890e-03
-3.997685800000000227e-03
-4.278169099999999669e-03
-4.385466000000000190e-03
-4.327590099999999683e-03
-4.134917000000000106e-03
-3.848867000000000173e-03
-3.511003400000000090e-03
-3.155899900000000077e-03
-2.808340700000000120e-03
-2.483670099999999922e-03
-2.189709399999999889e-03
-1.929035800000000007e-03
1.338978000000000108e-04
6.230989999999999782e-05
-3.844949999999999838e-05
-1.765352000000000034e-04
-3.608584000000000075e-04
-5.999455000000000109e-04
-8.999028000000000062e-04
-1.261452799999999985e-03
-1.676498999999999915e-03
-2.125401099999999887e-03
-2.576707599999999900e-03
-2.990827199999999790e-03
-3.327604000000000065e-03
-3.555543300000000087e-03
-3.659057900000000155e-03
-3.640809200000000127e-03
-3.518687200000000011e-03
-3.319424200000000141e-03
-3.071755800000000071e-03
-2.801304200000000189e-03
-2.527942799999999875e-03
-2.265277300000000105e-03
-2.021422199999999784e-03
-1.800302599999999923e-03
-1.144290000000000017e-05
-1.097857000000000016e-04
-2.391917000000000023e-04
-4.055899000000000179e-04
-6.140362999999999811e-04
-8.672368000000000177e-04
-1.163631000000000040e-03
-1.495418199999999946e-03
-1.847266100000000003e-03
-2.196632799999999851e-03
-2.516366400000000052e-03
-2.779395799999999882e-03
-2.964230500000000160e-03
-3.059338799999999827e-03
-3.064825900000000061e-03
-2.991034400000000190e-03
-2.854981500000000096e-03
-2.676171299999999861e-03
-2.473106899999999962e-03
-2.261145899999999868e-03
-2.051687600000000160e-03
-1.852315499999999948e-03
-1.629148999999999875e-04
-2.817106999999999793e-04
-4.296505999999999958e-04
-6.094758000000000033e-04
-8.218827000000000381e-04
-1.064326800000000043e-03
-1.329928400000000106e-03
-1.606926600000000045e-03
-1.879165599999999903e-03
-2.127894700000000205e-03
-2.334695099999999947e-03
-2.484796100000000087e-03
-2.569739699999999943e-03
-2.588535299999999983e-03
-2.547041800000000161e-03
-2.455993499999999802e-03
-2.328472800000000106e-03
-2.177607299999999909e-03
-2.014959199999999829e-03
-1.849709800000000001e-03
-4.387080999999999815e-04
-5.928538000000000124e-04
-7.705652999999999591e-04
-9.690386999999999959e-04
-1.182492100000000082e-03
-1.401988600000000050e-03
-1.615909299999999894e-03
-1.811186800000000059e-03
-1.975147599999999785e-03
-2.097537899999999886e-03
-2.172162799999999890e-03
-2.197666000000000029e-03
-2.177280199999999822e-03
-2.117736900000000144e-03
-2.027752299999999955e-03
-1.916536900000000024e-03
-1.792640999999999983e-03
-5.689620000000000051e-04
-7.176431999999999733e-04
-8.806079000000000294e-04
-1.053130999999999902e-03
-1.228446800000000064e-03
-1.398149000000000006e-03
-1.553031299999999958e-03
-1.684261100000000082e-03
-1.784634700000000025e-03
-1.849598899999999914e-03
-1.877774700000000045e-03
-1.870876000000000049e-03
-1.833107800000000108e-03
-1.770260999999999970e-03
-1.688758000000000056e-03
-8.001920999999999513e-04
-9.405922000000000371e-04
-1.081853800000000081e-03
-1.217846299999999961e-03
-1.342005299999999950e-03
-1.448088799999999992e-03
-1.530968499999999909e-03
-1.587275699999999993e-03
-1.615753400000000074e-03
-1.617248800000000005e-03
-1.594380199999999911e-03
-1.550994800000000040e-03
-1.255269399999999966e-03
-1.324207700000000010e-03
-1.372949899999999918e-03
-1.400409100000000063e-03
1.027801799999999901e-03
1.013572599999999898e-03
9.862731000000000015e-04
9.459250999999999467e-04
8.933708999999999747e-04
8.302608999999999640e-04
7.589171999999999715e-04
6.820910000000000124e-04
1.134873100000000036e-03
1.149453799999999989e-03
1.150509199999999932e-03
1.136186100000000001e-03
1.105342100000000077e-03
1.057835000000000025e-03
9.947058000000000809e-04
9.181830000000000417e-04
8.314753999999999505e-04
7.383894000000000221e-04
6.428628999999999941e-04
5.485258999999999925e-04
1.185371800000000007e-03
1.230608999999999913e-03
1.265802400000000036e-03
1.287726099999999922e-03
1.293185600000000069e-03
1.279410300000000025e-03
1.244540599999999914e-03
1.188115399999999924e-03
1.111412599999999978e-03
1.017495200000000056e-03
9.108926999999999736e-04
7.969752999999999993e-04
6.811976000000000185e-04
5.684182999999999987e-04
4.624459000000000035e-04
3.658603000000000180e-04
1.243188899999999979e-03
1.309080299999999895e-03
1.367706000000000000e-03
1.415200500000000092e-03
1.447204099999999929e-03
1.459184600000000076e-03
1.446984600000000105e-03
1.407578700000000063e-03
1.339904800000000108e-03
1.245505100000000084e-03
1.128676799999999954e-03
9.959653000000000169e-04
8.551080999999999656e-04
7.137727000000000177e-04
5.784861000000000517e-04
4.540111000000000212e-04
3.432067999999999816e-04
2.472500000000000197e-04
1.277300400000000013e-03
1.363075399999999970e-03
1.445697199999999979e-03
1.521239200000000036e-03
1.584774800000000004e-03
1.630466300000000006e-03
1.651908400000000028e-03
1.642854299999999901e-03
1.598377200000000069e-03
1.516300099999999974e-03
1.398421200000000020e-03
1.250908200000000079e-03
1.083471199999999982e-03
9.075084999999999662e-04
7.339402000000000512e-04
5.715117000000000461e-04
4.259918000000000233e-04
3.002196999999999743e-04
1.946816000000000030e-04
1.082682999999999947e-04
1.284584899999999946e-03
1.387352099999999934e-03
1.491847099999999956e-03
1.594709099999999961e-03
1.691271999999999958e-03
1.775377899999999948e-03
1.839328099999999917e-03
1.874156000000000086e-03
1.870503599999999910e-03
1.820350000000000093e-03
1.719472299999999986e-03
1.569824100000000080e-03
1.380493499999999952e-03
1.166302699999999942e-03
9.444218000000000317e-04
7.305455999999999669e-04
5.362239999999999672e-04
3.679914999999999749e-04
2.279535000000000122e-04
1.150703000000000018e-04
2.649199999999999979e-05
-4.138960000000000095e-05
1.264518299999999951e-03
1.379650999999999968e-03
1.501428200000000032e-03
1.627536400000000093e-03
1.754305000000000057e-03
1.876332600000000074e-03
1.986103700000000152e-03
2.073683800000000049e-03
2.126735299999999926e-03
2.131381600000000105e-03
2.074625599999999851e-03
1.948544300000000073e-03
1.754950799999999969e-03
1.507647599999999968e-03
1.229953599999999980e-03
9.482604999999999854e-04
6.851443999999999720e-04
4.552957000000000054e-04
2.650584999999999899e-04
1.143326999999999972e-04
-8.429000000000000105e-07
-8.610079999999999394e-05
-1.473018999999999999e-04
-1.897679000000000098e-04
1.219196299999999967e-03
1.341038500000000079e-03
1.473785100000000060e-03
1.616418899999999981e-03
1.766717199999999965e-03
1.920784399999999953e-03
2.072503099999999879e-03
2.212907699999999873e-03
2.329503900000000002e-03
2.405749999999999902e-03
2.421491899999999881e-03
2.355964600000000093e-03
2.194732500000000190e-03
1.938840299999999937e-03
1.609999900000000069e-03
1.245992000000000020e-03
8.879464999999999797e-04
5.678236999999999824e-04
3.027462999999999986e-04
9.638710000000000420e-05
-5.627600000000000126e-05
-1.642241000000000122e-04
-2.371580999999999884e-04
-2.838100999999999883e-04
-3.113268000000000090e-04
1.275581000000000024e-03
1.412271199999999951e-03
1.563237999999999997e-03
1.727866800000000050e-03
1.904126699999999931e-03
2.087926099999999965e-03
2.272347000000000082e-03
2.446758299999999935e-03
2.595734000000000149e-03
2.697759899999999968e-03
2.724544699999999989e-03
2.643913700000000144e-03
2.430623600000000016e-03
2.084038700000000102e-03
1.639721800000000073e-03
1.160353499999999989e-03
7.099730000000000277e-04
3.316155999999999900e-04
4.124400000000000017e-05
-1.654408999999999969e-04
-3.027840999999999866e-04
-3.874579999999999756e-04
-4.344177999999999863e-04
-4.555146999999999842e-04
-4.594970999999999886e-04
-4.525439000000000024e-04
1.189505399999999909e-03
1.323442399999999897e-03
1.474388099999999905e-03
1.643218899999999982e-03
1.829819000000000107e-03
2.032380800000000137e-03
2.246474699999999845e-03
2.463939400000000196e-03
2.671678199999999882e-03
2.850309499999999826e-03
2.972283100000000077e-03
2.999578499999999877e-03
2.885076500000000044e-03
2.587829900000000131e-03
2.105656300000000123e-03
1.499485299999999939e-03
8.741657000000000117e-04
3.262992000000000149e-04
-9.304500000000000108e-05
-3.790024999999999818e-04
-5.533365999999999632e-04
-6.455471000000000386e-04
-6.823744000000000511e-04
-6.842805999999999889e-04
-6.655257999999999834e-04
-6.354804000000000355e-04
-6.000480000000000527e-04
1.215751499999999895e-03
1.359382199999999976e-03
1.522943799999999966e-03
1.707951199999999939e-03
1.914820200000000089e-03
2.141879000000000179e-03
2.383934500000000050e-03
2.630450099999999923e-03
2.863631900000000036e-03
3.056845500000000045e-03
3.173151700000000162e-03
3.162795500000000100e-03
2.962742699999999785e-03
1.004132000000000028e-03
2.190739000000000033e-04
-3.958465999999999786e-04
-7.985181000000000483e-04
-1.015864999999999910e-03
-1.100432300000000032e-03
-1.101877200000000090e-03
-1.056964299999999966e-03
-9.895978000000001020e-04
-9.140462999999999496e-04
-8.382364999999999695e-04
-7.662217000000000030e-04
-6.998100999999999627e-04
1.098032699999999893e-03
1.229001499999999919e-03
1.379839799999999948e-03
1.553103500000000076e-03
1.750906900000000080e-03
1.974124500000000015e-03
2.220987199999999856e-03
2.484804399999999882e-03
2.750678099999999925e-03
2.991631399999999941e-03
3.165661000000000169e-03
3.215816099999999848e-03
-1.624091200000000101e-03
-1.882762999999999971e-03
-1.919170300000000093e-03
-1.828103900000000066e-03
-1.678189199999999921e-03
-1.510594299999999971e-03
-1.346887300000000056e-03
-1.196801300000000044e-03
-1.063617700000000013e-03
-9.473983000000000057e-04
-8.467738000000000478e-04
1.093408599999999911e-03
1.226852999999999971e-03
1.381412600000000036e-03
1.560052099999999957e-03
1.765299699999999927e-03
1.998247700000000109e-03
2.256620500000000151e-03
2.531282199999999784e-03
2.800452399999999852e-03
3.021535200000000174e-03
3.123068000000000111e-03
3.004484799999999813e-03
-3.494245600000000194e-03
-3.398595999999999822e-03
-3.098041800000000002e-03
-2.727100799999999936e-03
-2.359823300000000144e-03
-2.028764100000000209e-03
-1.743724899999999972e-03
-1.503785299999999990e-03
-1.303797499999999939e-03
-1.137534400000000077e-03
-9.990608000000000214e-04
1.074920100000000076e-03
1.207420700000000086e-03
1.361295300000000099e-03
1.539614099999999947e-03
1.744931500000000083e-03
1.978058699999999791e-03
2.235542399999999787e-03
2.504716599999999918e-03
2.754577399999999943e-03
2.920782399999999942e-03
2.886734800000000014e-03
-5.270183099999999933e-03
-4.479237199999999697e-03
-3.738394800000000191e-03
-3.102809599999999980e-03
-2.579823399999999888e-03
-2.157600700000000208e-03
-1.818995600000000105e-03
-1.547332599999999992e-03
-1.328371899999999939e-03
-1.150647299999999970e-03
1.041942500000000082e-03
1.169668399999999929e-03
1.317795500000000031e-03
1.489053300000000050e-03
1.685413400000000108e-03
1.906594400000000090e-03
2.146919399999999874e-03
2.388894899999999787e-03
2.590628399999999904e-03
2.663195900000000019e-03
-7.230703500000000387e-03
-5.886645200000000314e-03
-4.748671500000000052e-03
-3.834465200000000077e-03
-3.116717800000000024e-03
-2.557580500000000007e-03
-2.121727900000000208e-03
-1.780104499999999972e-03
-1.510103799999999892e-03
-1.294598500000000057e-03
9.946704999999999696e-04
1.113700000000000020e-03
1.250821899999999924e-03
1.407897400000000104e-03
1.585569599999999985e-03
1.781438200000000057e-03
1.986276999999999834e-03
2.176324700000000119e-03
2.298027299999999898e-03
2.239972600000000001e-03
-1.088556910000000079e-02
-8.876755899999999935e-03
-7.079847299999999892e-03
-5.614388599999999875e-03
-4.467654799999999995e-03
-3.585336100000000199e-03
-2.909227400000000043e-03
-2.389526199999999958e-03
-1.987124099999999869e-03
-1.672501999999999973e-03
-1.423789200000000026e-03
-1.224900400000000040e-03
9.342075000000000032e-04
1.040924099999999963e-03
1.162190499999999965e-03
1.298512500000000101e-03
1.448524899999999952e-03
1.606797199999999938e-03
1.759471500000000035e-03
1.875693199999999960e-03
1.891269199999999961e-03
1.679907200000000083e-03
-1.210610829999999964e-02
-9.857821500000000722e-03
-7.849637099999999187e-03
-6.209653499999999611e-03
-4.925229700000000391e-03
-3.937366799999999709e-03
-3.181601400000000184e-03
-2.602128699999999798e-03
-2.154830300000000042e-03
-1.806297199999999962e-03
-1.531755799999999935e-03
-1.312997999999999900e-03
8.625290000000000084e-04
9.540182000000000133e-04
1.055600899999999944e-03
1.166125199999999912e-03
1.281849999999999960e-03
1.393949900000000103e-03
1.483829199999999945e-03
1.514475599999999924e-03
1.415199900000000104e-03
1.057554000000000046e-03
2.277372000000000055e-04
-1.401008989999999975e-02
-1.216137720000000019e-02
-1.005528579999999915e-02
-8.106314999999999354e-03
-6.470227999999999743e-03
-5.162579900000000346e-03
-4.142253200000000322e-03
-3.353817199999999891e-03
-2.745182999999999998e-03
-2.273259299999999799e-03
-1.904482899999999966e-03
-1.613500599999999905e-03
-1.381441599999999950e-03
7.823126999999999815e-04
8.566691000000000410e-04
9.362303999999999462e-04
1.018164000000000005e-03
1.096453600000000042e-03
1.159304299999999992e-03
1.184591000000000029e-03
1.132141599999999908e-03
9.315921000000000011e-04
4.664388000000000106e-04
-4.370654999999999983e-04
-1.987409800000000150e-03
-1.247474760000000064e-02
-1.327701360000000004e-02
-1.273291200000000074e-02
-1.132684550000000005e-02
-9.593489499999999920e-03
-7.895280600000000384e-03
-6.406373600000000133e-03
-5.176585099999999641e-03
-4.193001699999999825e-03
-3.418701699999999923e-03
-2.812528800000000176e-03
-2.337474500000000146e-03
-1.963219100000000022e-03
-1.666071000000000088e-03
-1.427966199999999982e-03
6.966611999999999631e-04
7.531368000000000090e-04
8.100269000000000219e-04
8.630772000000000313e-04
9.045372000000000308e-04
9.207332999999999620e-04
8.881444000000000274e-04
7.674192999999999727e-04
4.953473000000000338e-04
-2.280850000000000024e-05
-9.118776000000000529e-04
-2.296906200000000103e-03
-4.221860600000000227e-03
-6.529404299999999606e-03
-8.801408499999999885e-03
-1.049289670000000049e-02
-1.122352539999999996e-02
-1.097351159999999937e-02
-1.001694459999999919e-02
-8.712090999999999932e-03
-7.344776800000000182e-03
-6.083166600000000299e-03
-4.998896299999999737e-03
-4.104298000000000148e-03
-3.382572400000000059e-03
-2.806465100000000209e-03
-2.347913799999999922e-03
-1.982136900000000101e-03
-1.688797300000000013e-03
-1.451836300000000071e-03
6.477473000000000519e-04
6.829009999999999725e-04
7.090160000000000299e-04
7.174030000000000294e-04
6.938740000000000316e-04
6.157600000000000269e-04
4.479420000000000016e-04
1.386500000000000091e-04
-3.821749000000000261e-04
-1.195377199999999923e-03
-2.365587199999999793e-03
-3.888428700000000002e-03
-5.629523499999999729e-03
-7.309726400000000034e-03
-8.589478700000000022e-03
-9.223105000000000539e-03
-9.167522699999999802e-03
-8.565181599999999174e-03
-7.640427800000000255e-03
-6.600473299999999599e-03
-5.588339299999999996e-03
-4.680626999999999704e-03
-3.905340000000000200e-03
-3.261913200000000033e-03
-2.736220299999999814e-03
-2.309696100000000005e-03
-1.964034099999999953e-03
-1.683167200000000021e-03
-1.453801399999999928e-03
5.444300000000000441e-04
5.600279000000000324e-04
5.627769999999999821e-04
5.438662000000000140e-04
4.898190999999999873e-04
3.805115999999999772e-04
1.869859999999999882e-04
-1.299755000000000094e-04
-6.182327999999999739e-04
-1.325613700000000030e-03
-2.279776099999999885e-03
-3.457070999999999929e-03
-4.753926900000000205e-03
-5.987840200000000418e-03
-6.947696899999999606e-03
-7.475446699999999979e-03
-7.526680299999999671e-03
-7.171126800000000162e-03
-6.543440900000000067e-03
-5.784883000000000212e-03
-5.006239299999999670e-03
-4.277024199999999998e-03
-3.631226699999999790e-03
-3.078648099999999836e-03
-2.615380599999999819e-03
-2.231222000000000153e-03
-1.914109499999999946e-03
-1.652404299999999998e-03
4.454020000000000158e-04
4.292263999999999737e-04
3.895923000000000138e-04
3.145784000000000102e-04
1.874862999999999942e-04
-1.404820000000000045e-05
-3.178691999999999889e-04
-7.545145999999999537e-04
-1.349773500000000029e-03
-2.111252699999999899e-03
-3.011137100000000136e-03
-3.973638300000000359e-03
-4.879975499999999675e-03
-5.597904100000000369e-03
-6.025679699999999736e-03
-6.126092100000000117e-03
-5.931269399999999567e-03
-5.519797100000000366e-03
-4.983895300000000007e-03
-4.403928599999999867e-03
-3.836827899999999993e-03
-3.315796099999999795e-03
-2.855624499999999920e-03
-2.459136499999999958e-03
-2.122520599999999907e-03
-1.838974599999999935e-03
-1.600876200000000060e-03
3.416777999999999764e-04
3.112103000000000178e-04
2.572423000000000222e-04
1.698199999999999970e-04
3.583539999999999913e-05
-1.610693000000000064e-04
-4.395925999999999762e-04
-8.179850999999999485e-04
-1.308504299999999933e-03
-1.909060599999999955e-03
-2.594101299999999801e-03
-3.309588799999999865e-03
-3.978010399999999842e-03
-4.515721599999999655e-03
-4.857067300000000171e-03
-4.973618299999999631e-03
-4.878857000000000332e-03
-4.617703800000000185e-03
-4.248576300000000104e-03
-3.827181700000000051e-03
-3.397087100000000057e-03
-2.987147900000000200e-03
-2.613292599999999903e-03
-2.281997999999999926e-03
-1.993739000000000015e-03
-1.745675799999999974e-03
2.098102000000000127e-04
1.470910999999999985e-04
5.416159999999999996e-05
-7.880279999999999707e-05
-2.632196999999999966e-04
-5.110124999999999867e-04
-8.323003000000000042e-04
-1.231595299999999928e-03
-1.702852900000000015e-03
-2.224849499999999834e-03
-2.759526300000000095e-03
-3.255989300000000034e-03
-3.660771299999999832e-03
-3.931294699999999913e-03
-4.046805799999999946e-03
-4.011901699999999814e-03
-3.851822300000000074e-03
-3.602824000000000131e-03
-3.302350199999999972e-03
-2.982246000000000029e-03
-2.665823800000000163e-03
-2.367885399999999831e-03
-2.096301999999999974e-03
-1.854026200000000006e-03
-1.640899699999999939e-03
5.779330000000000112e-05
-3.554370000000000326e-05
-1.623174999999999922e-04
-3.301641999999999923e-04
-5.462821999999999990e-04
-8.157042999999999889e-04
-1.138828699999999954e-03
-1.508594700000000059e-03
-1.908251500000000085e-03
-2.311109500000000164e-03
-2.683462399999999876e-03
-2.990716200000000102e-03
-3.205024700000000133e-03
-3.311554300000000076e-03
-3.310897000000000145e-03
-3.217009399999999977e-03
-3.052103500000000191e-03
-2.840850299999999901e-03
-2.605821800000000191e-03
-2.364965399999999825e-03
-2.130921500000000201e-03
-1.911533900000000072e-03
-1.710891699999999996e-03
-1.031929999999999995e-04
-2.208052999999999915e-04
-3.706431999999999956e-04
-5.567662999999999822e-04
-7.811889999999999503e-04
-1.042340400000000026e-03
-1.333505800000000076e-03
-1.641826600000000080e-03
-1.948566600000000088e-03
-2.231157499999999842e-03
-2.466897400000000150e-03
-2.637354900000000047e-03
-2.732000200000000122e-03
-2.749790599999999991e-03
-2.698308799999999796e-03
-2.591062999999999786e-03
-2.444121599999999825e-03
-2.273170900000000012e-03
-2.091589999999999942e-03
-1.909609999999999953e-03
-1.734294599999999928e-03
-2.598356000000000233e-04
-3.918975999999999797e-04
-5.510031000000000304e-04
-7.374766000000000264e-04
-9.489748999999999797e-04
-1.179658400000000015e-03
-1.419797999999999893e-03
-1.656175900000000055e-03
-1.873483599999999994e-03
-2.056582999999999849e-03
-2.193091299999999980e-03
-2.275519699999999958e-03
-2.302299800000000111e-03
-2.277454200000000005e-03
-2.209170900000000191e-03
-2.107859699999999926e-03
-1.984296400000000113e-03
-1.848248600000000023e-03
-1.707710199999999939e-03
-3.995960999999999806e-04
-5.351127999999999701e-04
-6.901332999999999947e-04
-8.621685999999999499e-04
-1.046370000000000026e-03
-1.235422099999999943e-03
-1.419925700000000072e-03
-1.589345000000000037e-03
-1.733408400000000004e-03
-1.843656499999999894e-03
-1.914724600000000014e-03
-1.945007300000000001e-03
-1.936558500000000070e-03
-1.894335700000000051e-03
-1.825078200000000012e-03
-1.736148600000000063e-03
-1.634587299999999948e-03
-5.133264999999999920e-04
-6.425352999999999534e-04
-7.832959999999999489e-04
-9.316835000000000524e-04
-1.082200499999999913e-03
-1.228096500000000089e-03
-1.362006800000000080e-03
-1.476835199999999978e-03
-1.566699300000000059e-03
-1.627716499999999926e-03
-1.658436699999999916e-03
-1.659836200000000105e-03
-1.634915299999999908e-03
-1.588047300000000085e-03
-1.524257700000000021e-03
-8.332130999999999999e-04
-9.544109999999999530e-04
-1.071254700000000021e-03
-1.178514199999999932e-03
-1.271196800000000101e-03
-1.345138899999999936e-03
-1.397496899999999898e-03
-1.427032699999999975e-03
-1.434140900000000071e-03
-1.420634399999999966e-03
-1.166088299999999906e-03
-1.211091199999999929e-03
1.115427300000000101e-03
1.117915699999999946e-03
1.106912800000000099e-03
1.081458200000000053e-03
1.041391100000000052e-03
9.874859000000000588e-04
9.214584999999999530e-04
8.458231000000000300e-04
7.636197000000000167e-04
6.780738000000000130e-04
1.199831300000000047e-03
1.233504600000000055e-03
1.255315899999999993e-03
1.262566400000000042e-03
1.252934399999999955e-03
1.224850599999999972e-03
1.177862900000000096e-03
1.112888399999999948e-03
1.032254299999999913e-03
9.394809000000000059e-04
8.388426000000000042e-04
7.348167999999999540e-04
6.315608000000000333e-04
5.325269999999999787e-04
1.285300000000000071e-03
1.341463599999999975e-03
1.387526700000000059e-03
1.419716400000000040e-03
1.434163299999999903e-03
1.427350200000000041e-03
1.396703399999999927e-03
1.341220200000000024e-03
1.261944700000000108e-03
1.162093299999999996e-03
1.046718600000000072e-03
9.219729000000000509e-04
7.941896999999999629e-04
6.690490000000000109e-04
5.510197999999999789e-04
4.431406000000000039e-04
1.267179200000000073e-03
1.350204700000000053e-03
1.430298200000000054e-03
1.503921799999999916e-03
1.566692400000000091e-03
1.613483599999999962e-03
1.638742699999999912e-03
1.637105499999999981e-03
1.604322200000000108e-03
1.538351500000000038e-03
1.440280699999999968e-03
1.314650899999999980e-03
1.168922300000000076e-03
1.012187699999999918e-03
8.535844999999999587e-04
7.009365000000000474e-04
5.599666000000000539e-04
4.341236000000000053e-04
3.248570000000000103e-04
2.321089000000000030e-04
1.287347099999999918e-03
1.388567199999999908e-03
1.491592300000000020e-03
1.593351999999999919e-03
1.689612299999999944e-03
1.774825199999999908e-03
1.842112199999999984e-03
1.883538599999999910e-03
1.890888000000000074e-03
1.857081900000000100e-03
1.778108600000000020e-03
1.654847099999999906e-03
1.493866900000000034e-03
1.306551499999999933e-03
1.106741299999999947e-03
9.078800000000000151e-04
7.207754999999999501e-04
5.525572000000000296e-04
4.067507999999999953e-04
2.840230000000000012e-04
1.831318000000000073e-04
1.017796000000000038e-04
1.396761500000000007e-03
1.519193600000000050e-03
1.646403100000000093e-03
1.775093599999999928e-03
1.900391900000000063e-03
2.015487700000000073e-03
2.111356200000000065e-03
2.176797199999999915e-03
2.199233499999999827e-03
2.166777899999999812e-03
2.071641899999999807e-03
1.913845400000000092e-03
1.703164799999999906e-03
1.457644799999999966e-03
1.199039000000000051e-03
9.474791999999999459e-04
7.177766000000000354e-04
5.182748999999999733e-04
3.516918000000000062e-04
2.168392999999999959e-04
1.103439000000000058e-04
2.795460000000000167e-05
1.374169400000000091e-03
1.510435799999999915e-03
1.657435100000000106e-03
1.813368600000000086e-03
1.974947099999999935e-03
2.136855400000000141e-03
2.291098699999999898e-03
2.426259899999999928e-03
2.526919700000000105e-03
2.574012999999999995e-03
2.547484500000000204e-03
2.432227899999999787e-03
2.225814799999999843e-03
1.943289900000000044e-03
1.614532300000000005e-03
1.274895799999999904e-03
9.548793000000000515e-04
6.741708999999999593e-04
4.411611000000000070e-04
2.557797000000000000e-04
1.130912000000000058e-04
6.180900000000000402e-06
-7.204010000000000166e-05
-1.279293000000000086e-04
1.323211099999999953e-03
1.466556099999999970e-03
1.625648099999999971e-03
1.800422600000000078e-03
1.989657599999999915e-03
2.190406900000000084e-03
2.397267499999999971e-03
2.601393799999999860e-03
2.789105599999999827e-03
2.940092000000000053e-03
3.026180399999999979e-03
3.013679899999999884e-03
2.873231400000000098e-03
2.596193300000000214e-03
2.206684500000000160e-03
1.756629300000000105e-03
1.305320700000000026e-03
8.988361000000000050e-04
5.613044000000000193e-04
2.976553000000000163e-04
1.010874000000000039e-04
-4.010510000000000333e-05
-1.382172999999999887e-04
-2.040770999999999980e-04
-2.464022000000000174e-04
-2.718600999999999960e-04
1.248808899999999996e-03
1.392311000000000026e-03
1.555011100000000058e-03
1.738502000000000059e-03
1.943707800000000086e-03
2.170344099999999866e-03
2.416192900000000039e-03
2.676172100000000133e-03
2.941086700000000113e-03
3.195631300000000095e-03
3.414837999999999901e-03
3.559142200000000016e-03
3.573178299999999873e-03
3.400138300000000134e-03
3.016563299999999986e-03
2.463166900000000013e-03
1.834756600000000092e-03
1.232975600000000074e-03
7.250508999999999600e-04
3.345369000000000055e-04
5.452519999999999763e-05
-1.354163999999999932e-04
-2.578697999999999819e-04
-3.323417000000000168e-04
-3.738611999999999773e-04
-3.933089000000000181e-04
-3.982826999999999873e-04
1.294976200000000051e-03
1.453294300000000042e-03
1.635298099999999907e-03
1.843772499999999986e-03
2.080965299999999827e-03
2.347904100000000084e-03
2.643421600000000170e-03
2.962930500000000075e-03
3.296985599999999877e-03
3.629175399999999812e-03
3.931253800000000277e-03
4.152213000000000084e-03
1.738116500000000007e-03
9.485900000000000235e-04
3.433717999999999775e-04
-7.157230000000000590e-05
-3.315773999999999740e-04
-4.805529000000000116e-04
-5.558826000000000435e-04
-5.848440000000000539e-04
-5.858140000000000396e-04
-5.706198999999999473e-04
-5.466578999999999623e-04
-5.184576000000000419e-04
1.182982599999999945e-03
1.330487800000000045e-03
1.502248999999999989e-03
1.702300300000000009e-03
1.934847900000000046e-03
2.203786799999999952e-03
2.511808400000000059e-03
2.858961399999999844e-03
3.240684099999999786e-03
3.645693099999999798e-03
4.054160900000000102e-03
4.434021600000000000e-03
2.572200999999999871e-04
-3.834603999999999921e-04
-7.427981999999999857e-04
-9.096876999999999741e-04
-9.602922000000000281e-04
-9.467564000000000144e-04
-9.010366000000000122e-04
-8.414597000000000439e-04
-7.780155000000000187e-04
-7.158601999999999804e-04
-6.574445999999999632e-04
1.196954100000000108e-03
1.352247399999999917e-03
1.534923099999999921e-03
1.750203199999999940e-03
2.003847000000000007e-03
2.301640199999999831e-03
2.648243199999999846e-03
3.044960599999999972e-03
3.486029099999999898e-03
3.953700999999999570e-03
4.414227300000000270e-03
-1.630948899999999993e-03
-1.768746799999999916e-03
-1.720449200000000048e-03
-1.590157700000000051e-03
-1.434146999999999983e-03
-1.279473799999999994e-03
-1.137505899999999900e-03
-1.011832199999999904e-03
-9.024674000000000324e-04
-8.079654999999999606e-04
1.197299399999999896e-03
1.357295600000000104e-03
1.547067199999999912e-03
1.772903900000000026e-03
2.042040000000000174e-03
2.362170099999999842e-03
2.740059400000000121e-03
3.178286199999999853e-03
3.668517899999999918e-03
4.179596600000000037e-03
-3.545634700000000004e-03
-3.196774600000000088e-03
-2.769416399999999941e-03
-2.361040000000000014e-03
-2.005565500000000122e-03
-1.708416300000000030e-03
-1.464147600000000049e-03
-1.264275800000000090e-03
-1.100416600000000099e-03
-9.653425999999999891e-04
-8.531799000000000067e-04
1.182382399999999971e-03
1.343166899999999895e-03
1.534947399999999967e-03
1.764722399999999955e-03
2.040769699999999808e-03
2.372223900000000000e-03
2.767532300000000167e-03
3.230207399999999833e-03
3.748436899999999829e-03
4.272106200000000409e-03
-4.958485799999999728e-03
-3.994623499999999834e-03
-3.225577900000000178e-03
-2.626909000000000188e-03
-2.163783700000000091e-03
-1.804416600000000081e-03
-1.523315900000000002e-03
-1.301091400000000016e-03
-1.123330600000000063e-03
-9.794111999999999783e-04
1.019105599999999955e-03
1.151260500000000041e-03
1.308303000000000027e-03
1.495995400000000100e-03
1.721419899999999947e-03
1.993014100000000018e-03
2.320133399999999967e-03
2.711311499999999840e-03
3.169115900000000000e-03
3.676342700000000217e-03
-6.816011900000000165e-03
-5.251552199999999677e-03
-4.095439799999999603e-03
