-4.062515999999999849e-04
-5.303905000000000034e-04
-6.401437000000000490e-04
-4.146269000000000061e-04
-5.598502999999999683e-04
-6.967091999999999600e-04
-8.141678999999999540e-04
-9.035923999999999649e-04
-5.516536999999999526e-04
-7.105759999999999811e-04
-8.575809000000000210e-04
-9.803753000000000120e-04
-1.069739899999999980e-03
-6.777912000000000303e-04
-8.463083999999999624e-04
-9.996939999999999733e-04
-1.124886600000000059e-03
-9.563072999999999843e-04
1.399135000000000081e-04
4.349609999999999848e-05
-5.788749999999999761e-05
-1.573210999999999869e-04
-2.480235999999999812e-04
1.385008999999999871e-04
3.197799999999999775e-05
-8.553549999999999446e-05
-2.060100999999999946e-04
-3.203128000000000073e-04
-4.199858999999999797e-04
-4.988912999999999985e-04
1.385706999999999911e-04
2.595739999999999986e-05
-1.050984999999999967e-04
-2.467400000000000127e-04
-3.881668999999999918e-04
-5.175817999999999782e-04
-6.247104999999999542e-04
-7.029270000000000006e-04
-7.501758000000000081e-04
2.857870000000000134e-05
-1.095203999999999958e-04
-2.676000999999999792e-04
-4.351369999999999912e-04
-5.981053000000000281e-04
-7.417542000000000276e-04
-8.540134999999999914e-04
-9.281139999999999573e-04
-9.633846999999999853e-04
3.916079999999999952e-05
-9.663609999999999453e-05
-2.610479000000000185e-04
-4.464226000000000175e-04
-6.393612999999999597e-04
-8.224811000000000491e-04
-9.781150000000001041e-04
-1.092639299999999952e-03
-1.159528699999999969e-03
-1.179900100000000037e-03
-1.160735200000000047e-03
-7.084239999999999786e-05
-2.289836000000000009e-04
-4.177386999999999854e-04
-6.275790999999999965e-04
-8.424123999999999848e-04
-1.041872899999999984e-03
-1.205870099999999980e-03
-1.319702899999999944e-03
-1.377409800000000068e-03
-1.381985700000000093e-03
-1.342901700000000099e-03
-1.816060000000000092e-04
-3.583928000000000222e-04
-5.664520999999999836e-04
-7.946362000000000000e-04
-1.024795499999999956e-03
-1.234504399999999903e-03
-1.402197700000000014e-03
-1.512751199999999964e-03
-1.560927699999999953e-03
-1.551289599999999954e-03
-2.852619000000000140e-04
-4.747571999999999817e-04
-6.945777999999999891e-04
-9.324596000000000533e-04
-1.169193900000000102e-03
-1.381609800000000061e-03
-1.547899099999999967e-03
-1.653231000000000015e-03
-1.693079699999999917e-03
-1.672939999999999931e-03
-3.750135000000000035e-04
-5.699821999999999788e-04
-7.927977999999999805e-04
-1.030738399999999930e-03
-1.264675800000000100e-03
-1.472091100000000059e-03
-1.632164400000000104e-03
-1.731003999999999963e-03
-1.764672899999999989e-03
-6.393771000000000350e-04
-8.567222000000000422e-04
-1.085797099999999925e-03
-1.308583299999999984e-03
-1.504378100000000043e-03
-1.654319299999999901e-03
-1.745926600000000063e-03
-8.869296000000000471e-04
-1.100205599999999921e-03
-1.305639799999999988e-03
-1.485089100000000018e-03
-1.622218400000000060e-03
3.204785000000000251e-04
2.379050999999999865e-04
1.501595000000000046e-04
4.195339000000000186e-04
3.442073999999999937e-04
2.533260000000000069e-04
1.519957000000000057e-04
4.710549999999999818e-05
-5.386149999999999922e-05
-1.442499000000000027e-04
4.356191000000000251e-04
3.600408999999999836e-04
2.628037999999999859e-04
1.482106000000000070e-04
2.375519999999999916e-05
-1.009372999999999933e-04
-2.159994000000000042e-04
-3.133850999999999889e-04
-3.883057999999999779e-04
4.399504999999999952e-04
3.673538000000000064e-04
2.671455999999999787e-04
1.414830000000000005e-04
-2.933299999999999935e-06
-1.551639000000000002e-04
-3.018771999999999970e-04
-4.303089999999999758e-04
-5.311715999999999747e-04
-6.002886999999999503e-04
-6.384685999999999877e-04
4.325161999999999909e-04
3.665440000000000061e-04
2.685154999999999942e-04
1.371250000000000127e-04
-2.380350000000000003e-05
-2.041664000000000109e-04
-3.883309000000000261e-04
-5.582105000000000183e-04
-6.977583000000000309e-04
-7.968966999999999761e-04
-8.531250000000000422e-04
-8.704780999999999760e-04
-8.569104000000000347e-04
3.578516999999999809e-04
2.680361999999999936e-04
1.394630999999999963e-04
-2.876629999999999934e-05
-2.305696999999999890e-04
-4.514481999999999783e-04
-6.699167999999999486e-04
-8.622874000000000207e-04
-1.009143099999999923e-03
-1.100361800000000060e-03
-1.136342600000000026e-03
-1.125541000000000085e-03
-1.080334299999999954e-03
3.412164999999999881e-04
2.644033999999999968e-04
1.478150999999999868e-04
-1.431439999999999969e-05
-2.221984000000000036e-04
-4.670252999999999753e-04
-7.292719999999999932e-04
-9.810171999999998949e-04
-1.192759299999999936e-03
-1.342087999999999962e-03
-1.419696600000000010e-03
-1.429852600000000107e-03
-1.386150100000000090e-03
-1.305711800000000037e-03
2.553518999999999971e-04
1.569350000000000009e-04
1.317399999999999957e-05
-1.819205000000000008e-04
-4.275401999999999762e-04
-7.119653000000000526e-04
-1.010772000000000059e-03
-1.290113899999999940e-03
-1.515507699999999944e-03
-1.662453099999999968e-03
-1.723114599999999970e-03
-1.705840900000000007e-03
-1.629162900000000061e-03
-1.514516399999999959e-03
1.613862000000000033e-04
4.255790000000000126e-05
-1.255771999999999943e-04
-3.486588999999999899e-04
-6.245218000000000080e-04
-9.387809999999999688e-04
-1.263191600000000085e-03
-1.559795500000000059e-03
-1.791086899999999984e-03
-1.931788600000000026e-03
-1.975723799999999815e-03
-1.934510699999999984e-03
-1.830335599999999979e-03
-1.687723099999999948e-03
6.532919999999999786e-05
-7.043789999999999860e-05
-2.570885999999999766e-04
-4.992672000000000299e-04
-7.932390000000000534e-04
-1.122643200000000060e-03
-1.457285599999999992e-03
-1.757851200000000013e-03
-1.986476799999999879e-03
-2.118550399999999997e-03
-2.149266300000000039e-03
-2.091893200000000119e-03
-1.970203299999999901e-03
-1.810033300000000057e-03
-2.668550000000000056e-05
-1.741385999999999932e-04
-3.713670999999999769e-04
-6.215098999999999971e-04
-9.193021999999999479e-04
-1.247424399999999935e-03
-1.575903200000000094e-03
-1.866969499999999961e-03
-2.085016700000000105e-03
-2.207350800000000123e-03
-2.230021300000000102e-03
-2.166126699999999794e-03
-2.038792099999999809e-03
-2.624209999999999867e-04
-4.616751000000000210e-04
-7.085992999999999632e-04
-9.967250999999999889e-04
-1.308887899999999988e-03
-1.617236599999999965e-03
-1.887819499999999952e-03
-2.089185899999999787e-03
-2.201401300000000068e-03
-2.220923499999999818e-03
-2.159264100000000183e-03
-2.037121399999999947e-03
-5.253012000000000046e-04
-7.596423000000000368e-04
-1.027644600000000071e-03
-1.313263399999999980e-03
-1.592029800000000070e-03
-1.835063399999999978e-03
-2.015989900000000022e-03
-2.118004900000000027e-03
-2.137745899999999796e-03
-2.084411600000000194e-03
-7.783930999999999793e-04
-1.019773199999999928e-03
-1.273031800000000045e-03
-1.517625400000000013e-03
-1.730034199999999937e-03
-1.889022900000000057e-03
-1.980893000000000063e-03
-2.002428100000000141e-03
-1.202475699999999963e-03
-1.412302299999999931e-03
-1.594181999999999978e-03
4.926610000000000321e-04
4.160165999999999972e-04
3.299854999999999867e-04
2.400525999999999994e-04
6.501449000000000507e-04
6.108061000000000133e-04
5.506756000000000238e-04
4.708835999999999990e-04
3.752148999999999979e-04
2.698690999999999807e-04
1.624704000000000090e-04
6.058639999999999984e-05
-2.970129999999999971e-05
6.798989000000000508e-04
6.506650000000000324e-04
5.970078999999999664e-04
5.177731999999999777e-04
4.150264000000000080e-04
2.945739999999999752e-04
1.654507000000000048e-04
3.824879999999999876e-05
-7.719989999999999925e-05
-1.738354000000000060e-04
-2.482979999999999866e-04
6.875778999999999615e-04
6.697718999999999765e-04
6.254219000000000098e-04
5.504875999999999910e-04
4.440964000000000261e-04
3.100754999999999961e-04
1.575372999999999867e-04
-2.317999999999999978e-07
-1.486340000000000003e-04
-2.753316999999999917e-04
-3.729013000000000206e-04
-4.395119999999999756e-04
-4.778017999999999762e-04
6.658903999999999561e-04
6.326166000000000037e-04
5.655703000000000423e-04
4.599366000000000240e-04
3.156729999999999844e-04
1.397070000000000093e-04
-5.356840000000000028e-05
-2.446298999999999869e-04
-4.137176000000000113e-04
-5.461803999999999791e-04
-6.356089999999999787e-04
-6.835860000000000243e-04
-6.970155000000000014e-04
-6.849065000000000535e-04
6.400444000000000142e-04
6.184065000000000091e-04
5.626176999999999784e-04
4.636935999999999814e-04
3.160271999999999886e-04
1.211955000000000020e-04
-1.088901999999999963e-04
-3.518694999999999961e-04
-5.795123000000000114e-04
-7.658686000000000486e-04
-8.949036999999999747e-04
-9.635352000000000239e-04
-9.793175999999999357e-04
-9.553415999999999471e-04
-9.054608999999999488e-04
5.959516999999999679e-04
5.849444000000000301e-04
5.425916999999999503e-04
4.569880000000000231e-04
3.169022999999999762e-04
1.159969000000000007e-04
-1.415871999999999986e-04
-4.368037000000000070e-04
-7.363775000000000355e-04
-1.000948800000000041e-03
-1.197897899999999941e-03
-1.311571999999999998e-03
-1.345167800000000033e-03
-1.314918599999999977e-03
-1.241750299999999901e-03
-1.144929899999999915e-03
5.363799000000000041e-04
5.072262000000000125e-04
4.392748000000000247e-04
3.180438000000000058e-04
1.300479000000000056e-04
-1.314843000000000110e-04
-4.589298999999999918e-04
-8.244037000000000500e-04
-1.181673000000000055e-03
-1.479005100000000067e-03
-1.677656700000000048e-03
-1.764512300000000084e-03
-1.751596100000000046e-03
-1.665614799999999996e-03
-1.536025899999999981e-03
-1.387393100000000037e-03
4.599989000000000183e-04
4.098250000000000005e-04
3.134729000000000053e-04
1.543163000000000119e-04
-8.277110000000000446e-05
-4.042712000000000063e-04
-7.984240999999999778e-04
-1.228214000000000042e-03
-1.634872699999999910e-03
-1.955589299999999867e-03
-2.147314699999999799e-03
-2.201017699999999796e-03
-2.138185099999999946e-03
-1.995698199999999811e-03
-1.810749800000000008e-03
-1.612363500000000074e-03
3.706348000000000043e-04
2.985379000000000136e-04
1.741419000000000072e-04
-2.026149999999999905e-05
-3.001227000000000191e-04
-6.704923999999999910e-04
-1.115340800000000094e-03
-1.590285299999999978e-03
-2.027769400000000149e-03
-2.358272099999999833e-03
-2.537269600000000187e-03
-2.559860599999999944e-03
-2.454805100000000042e-03
-2.266274799999999819e-03
-2.036847400000000186e-03
-1.798610699999999988e-03
2.737742000000000257e-04
1.812380999999999953e-04
3.266560000000000112e-05
-1.892433999999999913e-04
-4.985649000000000417e-04
-8.977374999999999678e-04
-1.367071400000000004e-03
-1.858387300000000075e-03
-2.301557100000000116e-03
-2.626660299999999948e-03
-2.790805099999999969e-03
-2.791823799999999973e-03
-2.661395600000000198e-03
-2.446265799999999824e-03
-2.190999800000000171e-03
-1.929006800000000093e-03
1.757030999999999882e-04
6.645259999999999459e-05
-9.951720000000000325e-05
-3.376163999999999749e-04
-6.590695000000000364e-04
-1.063041899999999903e-03
-1.527546199999999920e-03
-2.004857999999999987e-03
-2.428727900000000189e-03
-2.734834099999999824e-03
-2.884469100000000216e-03
-2.876357200000000027e-03
-2.740474899999999995e-03
-2.521231799999999919e-03
-2.261607000000000114e-03
-1.994449299999999804e-03
-3.824380000000000135e-05
-2.132699999999999960e-04
-4.551205999999999806e-04
-7.714102000000000025e-04
-1.158194900000000067e-03
-1.592972999999999915e-03
-2.032087499999999866e-03
-2.417775000000000046e-03
-2.695178400000000033e-03
-2.831280299999999923e-03
-2.824413899999999884e-03
-2.699685900000000152e-03
-2.495578100000000066e-03
-2.250592799999999883e-03
-1.274617999999999932e-04
-3.032213999999999765e-04
-5.376527000000000302e-04
-8.348277000000000302e-04
-1.188528799999999950e-03
-1.577424900000000104e-03
-1.964104899999999810e-03
-2.301300499999999784e-03
-2.544925099999999999e-03
-2.668084099999999854e-03
-2.668306899999999936e-03
-2.564662300000000207e-03
-2.388050400000000205e-03
-2.170803800000000068e-03
-3.679617000000000044e-04
-5.866097000000000021e-04
-8.556262000000000242e-04
-1.167611100000000074e-03
-1.503586699999999920e-03
-1.833082900000000074e-03
-2.119203200000000127e-03
-2.328029699999999928e-03
-2.438431899999999892e-03
-2.447320900000000098e-03
-2.368088500000000134e-03
-2.224072699999999920e-03
-6.070014000000000529e-04
-8.436319999999999757e-04
-1.111506099999999986e-03
-1.394563099999999957e-03
-1.668903100000000044e-03
-1.906666000000000003e-03
-2.082535200000000010e-03
-2.180349700000000068e-03
-2.196792300000000031e-03
-1.034828900000000097e-03
-1.269284999999999988e-03
-1.494277299999999904e-03
-1.689226000000000052e-03
-1.835601500000000027e-03
6.335473000000000320e-04
5.653547000000000303e-04
4.846583999999999810e-04
7.934304999999999787e-04
7.717095999999999678e-04
7.281381999999999872e-04
6.623551000000000308e-04
5.766642999999999466e-04
4.761351999999999945e-04
3.679034000000000189e-04
2.597990999999999907e-04
1.588070999999999927e-04
8.467891999999999867e-04
8.419674000000000255e-04
8.127511999999999714e-04
7.559348000000000456e-04
6.711472000000000444e-04
5.618961999999999481e-04
4.357068000000000074e-04
3.029190999999999980e-04
1.744045000000000003e-04
5.915859999999999972e-05
-3.721259999999999672e-05
8.725572000000000016e-04
8.860321999999999903e-04
8.749211000000000011e-04
8.329424999999999893e-04
7.559577000000000484e-04
6.439535000000000137e-04
5.026164000000000283e-04
3.434048999999999891e-04
1.813902000000000103e-04
3.143640000000000280e-05
-9.545500000000000003e-05
-1.939317999999999988e-04
-2.638704999999999870e-04
8.670404999999999736e-04
8.971304000000000257e-04
9.047080000000000529e-04
8.808298999999999469e-04
8.172697000000000468e-04
7.090466999999999820e-04
5.574315000000000042e-04
3.721745000000000261e-04
1.711307999999999981e-04
-2.378309999999999935e-05
-1.929258999999999954e-04
-3.241432000000000037e-04
-4.142676999999999774e-04
-4.671402000000000171e-04
-4.902412999999999780e-04
8.315519000000000166e-04
8.740754000000000102e-04
8.979104999999999812e-04
8.923817999999999811e-04
8.455570000000000360e-04
7.467377999999999776e-04
5.904883000000000094e-04
3.812727999999999929e-04
1.363624999999999874e-04
-1.160246999999999939e-04
-3.444755999999999990e-04
-5.246168999999999746e-04
-6.456971000000000151e-04
-7.103001000000000063e-04
-7.292762000000000159e-04
-7.160349999999999571e-04
8.211025000000000485e-04
8.565425999999999465e-04
8.670980999999999914e-04
8.385078000000000019e-04
7.547101000000000504e-04
6.017926999999999955e-04
3.745905999999999910e-04
8.402169999999999550e-05
-2.394750000000000069e-04
-5.515027999999999944e-04
-8.084042000000000484e-04
-9.829847999999999537e-04
-1.071010799999999900e-03
-1.086199599999999920e-03
-1.050038799999999939e-03
-9.833987999999999671e-04
-9.024611000000000525e-04
7.464095000000000235e-04
7.876272000000000134e-04
8.098031999999999583e-04
7.986936000000000469e-04
7.354093000000000132e-04
5.984863999999999896e-04
3.699471000000000074e-04
4.590679999999999896e-05
-3.518449999999999898e-04
-7.721991999999999572e-04
-1.147599800000000071e-03
-1.420341199999999946e-03
-1.564944100000000005e-03
-1.591196399999999936e-03
-1.530194400000000048e-03
-1.417224199999999983e-03
-1.281184799999999938e-03
-1.141479900000000021e-03
7.013562000000000528e-04
7.293748000000000288e-04
7.318341999999999599e-04
6.907584000000000033e-04
5.820034000000000188e-04
3.779685000000000184e-04
5.626819999999999771e-05
-3.844276999999999785e-04
-9.071809000000000340e-04
-1.433480599999999985e-03
-1.867364500000000000e-03
-2.137668000000000120e-03
-2.226821800000000195e-03
-2.165925200000000037e-03
-2.008017899999999835e-03
-1.803438999999999997e-03
-1.588380199999999982e-03
-1.384093999999999993e-03
6.370329000000000312e-04
6.472248000000000107e-04
6.245000999999999807e-04
5.473054000000000200e-04
3.866644000000000244e-04
1.096265999999999983e-04
-3.093837999999999905e-04
-8.674798000000000491e-04
-1.510697400000000001e-03
-2.132023399999999954e-03
-2.608356699999999848e-03
-2.859018799999999902e-03
-2.878747499999999813e-03
-2.722207099999999960e-03
-2.464058099999999907e-03
-2.168067899999999958e-03
-1.876053599999999910e-03
-1.609942799999999896e-03
5.560339000000000297e-04
5.451256999999999501e-04
4.940984000000000261e-04
3.788053999999999900e-04
1.672680000000000119e-04
-1.759874000000000085e-04
-6.764418000000000123e-04
-1.325114500000000020e-03
-2.053439399999999922e-03
-2.734031999999999955e-03
-3.227310699999999966e-03
-3.449765100000000070e-03
-3.407496400000000012e-03
-3.172544099999999832e-03
-2.834515399999999827e-03
-2.466220800000000143e-03
-2.113204100000000071e-03
-1.797759300000000005e-03
4.629535999999999851e-04
4.298034999999999855e-04
3.506938000000000134e-04
2.006029000000000102e-04
-5.253360000000000131e-05
-4.425453999999999998e-04
-9.905478000000000980e-04
-1.680388699999999912e-03
-2.435523700000000007e-03
-3.123485100000000098e-03
-3.604944799999999956e-03
-3.800785100000000135e-03
-3.722616700000000011e-03
-3.447351400000000111e-03
-3.068525800000000171e-03
-2.661874700000000076e-03
-2.274746600000000004e-03
-1.930186499999999921e-03
3.637371000000000246e-04
3.096617999999999767e-04
2.061897999999999888e-04
2.944279999999999871e-05
-2.496646999999999950e-04
-6.594691000000000181e-04
-1.213597500000000023e-03
-1.889597999999999929e-03
-2.611359699999999968e-03
-3.256788300000000146e-03
-3.701907200000000009e-03
-3.877428100000000072e-03
-3.794014200000000135e-03
-3.521105999999999975e-03
-3.145186600000000107e-03
-2.738526800000000080e-03
-2.348044699999999891e-03
-1.997754599999999794e-03
1.931690000000000067e-04
7.175610000000000235e-05
-1.205583999999999942e-04
-4.076683000000000216e-04
-8.103138999999999871e-04
-1.334011900000000054e-03
-1.952747199999999971e-03
-2.597901799999999956e-03
-3.167395899999999806e-03
-3.560610499999999814e-03
-3.720680499999999818e-03
-3.653862300000000011e-03
-3.415067500000000100e-03
-3.076493999999999930e-03
-2.701816499999999850e-03
-2.334983899999999984e-03
8.731560000000000135e-05
-4.435370000000000192e-05
-2.407195000000000049e-04
-5.196150999999999982e-04
-8.941377999999999826e-04
-1.363230700000000019e-03
-1.900600400000000039e-03
-2.449002999999999944e-03
-2.929028699999999992e-03
-3.264282900000000168e-03
-3.410405300000000136e-03
-3.369043099999999985e-03
-3.179406599999999843e-03
-2.896988300000000183e-03
-2.574026200000000160e-03
-2.249249599999999811e-03
-1.378057000000000077e-04
-3.283952000000000030e-04
-5.872070999999999975e-04
-9.210483000000000428e-04
-1.324713400000000069e-03
-1.774174500000000061e-03
-2.224348399999999826e-03
-2.616440700000000064e-03
-2.894978500000000045e-03
-3.026642500000000131e-03
-3.009885900000000211e-03
-2.870620400000000079e-03
-2.648837199999999874e-03
-2.384874300000000037e-03
-3.857210000000000022e-04
-6.176045999999999923e-04
-9.059409000000000255e-04
-1.243607500000000043e-03
-1.610172499999999946e-03
-1.971530300000000086e-03
-2.285506300000000185e-03
-2.512922099999999933e-03
-2.629412800000000081e-03
-2.631822600000000012e-03
-2.536278500000000054e-03
-2.370227300000000027e-03
-6.200328000000000176e-04
-8.636056999999999501e-04
-1.140841199999999929e-03
-1.435212099999999980e-03
-1.721590299999999941e-03
-1.970280100000000069e-03
-2.154038200000000115e-03
-2.255356000000000027e-03
-2.270608099999999949e-03
-1.031285500000000011e-03
-1.265799499999999914e-03
-1.491490199999999898e-03
-1.687637500000000032e-03
-1.835424399999999916e-03
8.814308999999999773e-04
8.522376999999999600e-04
8.002766000000000350e-04
7.266542999999999657e-04
6.352177000000000084e-04
5.321225999999999864e-04
4.247031999999999760e-04
9.663993999999999753e-04
9.811379000000000714e-04
9.728140000000000138e-04
9.369450000000000087e-04
8.713650000000000301e-04
7.775262999999999489e-04
6.610890000000000126e-04
5.312163000000000388e-04
3.986117999999999975e-04
2.731063000000000045e-04
1.618360000000000003e-04
1.014921100000000043e-03
1.054774500000000030e-03
1.073193100000000098e-03
1.062559499999999983e-03
1.016343799999999903e-03
9.312200999999999985e-04
8.092792999999999818e-04
6.591274999999999738e-04
4.946682000000000422e-04
3.316114000000000214e-04
1.833818000000000134e-04
5.845379999999999928e-05
-4.006670000000000045e-05
1.027252100000000017e-03
1.090405200000000088e-03
1.136737500000000031e-03
1.156545199999999994e-03
1.139313699999999893e-03
1.075804700000000105e-03
9.613278999999999748e-04
7.993995999999999958e-04
6.036293999999999774e-04
3.954418999999999925e-04
1.977558000000000083e-04
2.815050000000000093e-05
-1.046422999999999993e-04
-2.000784999999999988e-04
-2.628312999999999852e-04
1.001799399999999968e-03
1.082367899999999968e-03
1.152430700000000099e-03
1.201636000000000067e-03
1.216910500000000037e-03
1.183861999999999935e-03
1.089917500000000096e-03
9.294022000000000307e-04
7.093458999999999876e-04
4.522470000000000222e-04
1.913674999999999936e-04
-4.075819999999999882e-05
-2.231750999999999971e-04
-3.499835000000000077e-04
-4.267087000000000028e-04
-4.642542999999999843e-04
-4.741578000000000090e-04
1.032757600000000020e-03
1.118404599999999914e-03
1.190428400000000022e-03
1.234902099999999996e-03
1.233827100000000091e-03
1.167391600000000033e-03
1.019189599999999977e-03
7.844602000000000215e-04
4.788802000000000098e-04
1.412353999999999997e-04
-1.771817999999999982e-04
-4.330755999999999842e-04
-6.064700000000000125e-04
-7.009410999999999897e-04
-7.335599999999999630e-04
-7.244091000000000028e-04
-6.905798999999999575e-04
9.502764000000000350e-04
1.041668300000000037e-03
1.126608899999999953e-03
1.192284100000000086e-03
1.219423399999999998e-03
1.182511299999999908e-03
1.053658100000000103e-03
8.121008000000000089e-04
4.586538000000000030e-04
2.862620000000000046e-05
-4.095753999999999953e-04
-7.790892000000000216e-04
-1.029337300000000063e-03
-1.152547000000000077e-03
-1.173076199999999961e-03
-1.126253000000000020e-03
-1.043395199999999981e-03
-9.464887000000000170e-04
-8.487243000000000218e-04
9.354399000000000221e-04
1.022562199999999932e-03
1.098690899999999913e-03
1.146545600000000104e-03
1.139270400000000089e-03
1.040294800000000040e-03
8.096555000000000071e-04
4.213148999999999800e-04
-1.103956999999999974e-04
-7.117640999999999638e-04
-1.264425200000000079e-03
-1.659608799999999973e-03
-1.851810499999999911e-03
-1.865256200000000100e-03
-1.759494099999999936e-03
-1.593563500000000051e-03
-1.409517199999999956e-03
-1.231492399999999966e-03
-1.070713999999999954e-03
8.151742999999999923e-04
8.956018000000000485e-04
9.712142999999999688e-04
1.028874500000000105e-03
1.045754799999999924e-03
9.855484000000000726e-04
7.975802999999999842e-04
4.261250999999999971e-04
-1.608166000000000012e-04
-9.260027000000000102e-04
-1.735365300000000100e-03
-2.399503299999999981e-03
-2.777352600000000064e-03
-2.848920999999999919e-03
-2.692861500000000123e-03
-2.415226400000000054e-03
-2.099807400000000112e-03
-1.795963800000000086e-03
-1.526044399999999975e-03
-1.296277399999999896e-03
7.629686999999999580e-04
8.300213000000000079e-04
8.866265000000000127e-04
9.162096999999999906e-04
8.900896999999999629e-04
7.623918000000000144e-04
4.685329999999999812e-04
-6.218130000000000044e-05
-8.651610000000000333e-04
-1.873697899999999996e-03
-2.883612600000000012e-03
-3.630454500000000143e-03
-3.950392500000000223e-03
-3.864582300000000189e-03
-3.514963500000000025e-03
-3.053810499999999855e-03
-2.585443399999999906e-03
-2.162550400000000199e-03
-1.803173099999999963e-03
-1.507243599999999895e-03
6.923225999999999773e-04
7.408976000000000060e-04
7.721721999999999657e-04
7.663309000000000527e-04
6.898272999999999471e-04
4.898762000000000515e-04
9.345260000000000036e-05
-5.765616000000000534e-04
-1.550684400000000010e-03
-2.733521599999999812e-03
-3.868934300000000191e-03
-4.646361699999999699e-03
-4.896907100000000290e-03
-4.677042299999999847e-03
-4.173422900000000289e-03
-3.568933800000000101e-03
-2.981059500000000050e-03
-2.464377399999999937e-03
-2.033746900000000211e-03
-1.684515599999999915e-03
6.068246000000000447e-04
6.334736000000000533e-04
6.357456999999999735e-04
5.915300999999999762e-04
4.647818999999999757e-04
2.009378999999999994e-04
-2.719827999999999872e-04
-1.024013299999999935e-03
-2.070575299999999948e-03
-3.297549099999999914e-03
-4.438246699999999663e-03
-5.187241500000000158e-03
-5.388843100000000400e-03
-5.109716999999999731e-03
-4.542648600000000030e-03
-3.875658200000000209e-03
-3.230636800000000110e-03
-2.664809599999999959e-03
-2.193753799999999948e-03
-1.812213499999999972e-03
5.153070000000000046e-04
4.884878999999999957e-04
4.084027000000000057e-04
2.397013000000000084e-04
-6.808889999999999788e-05
-5.766279000000000023e-04
-1.338034000000000098e-03
-2.348362899999999979e-03
-3.490626100000000179e-03
-4.527817899999999826e-03
-5.201978900000000204e-03
-5.382441200000000030e-03
-5.122620199999999673e-03
-4.586856299999999935e-03
-3.944027499999999860e-03
-3.310684200000000004e-03
-2.746279199999999976e-03
-2.270430300000000033e-03
-1.881196099999999944e-03
3.948517000000000129e-04
3.423701000000000240e-04
2.336995000000000077e-04
3.720220000000000102e-05
-2.890416000000000144e-04
-7.911736000000000376e-04
-1.500310900000000015e-03
-2.397195700000000207e-03
-3.376419399999999998e-03
-4.251000599999999775e-03
-4.826071799999999759e-03
-4.999673500000000222e-03
-4.803786699999999799e-03
-4.359431799999999822e-03
-3.802040300000000123e-03
-3.233870199999999868e-03
-2.713344600000000117e-03
-2.264492999999999801e-03
2.798570000000000007e-04
2.076373000000000118e-04
8.034989999999999450e-05
-1.279692999999999879e-04
-4.488210999999999980e-04
-9.125453999999999857e-04
-1.532759299999999960e-03
-2.282755400000000164e-03
-3.076478899999999985e-03
-3.777743499999999810e-03
-4.249491799999999611e-03
-4.416347699999999959e-03
-4.292479299999999755e-03
-3.958046199999999855e-03
-3.512292199999999826e-03
-3.037827400000000025e-03
-2.587643699999999953e-03
-2.187985800000000203e-03
9.114720000000000038e-05
-4.455249999999999738e-05
-2.506248999999999998e-04
-5.486571999999999890e-04
-9.560899000000000090e-04
-1.475017899999999998e-03
-2.078003399999999844e-03
-2.699461900000000095e-03
-3.244909800000000087e-03
-3.621827599999999977e-03
-3.776591499999999886e-03
-3.712505100000000093e-03
-3.478836400000000044e-03
-3.143517900000000059e-03
-2.768728800000000087e-03
-2.398866300000000035e-03
-2.059461399999999980e-03
-1.394820999999999973e-04
-3.331777999999999866e-04
-5.986099000000000368e-04
-9.441920999999999821e-04
-1.365863699999999951e-03
-1.839258500000000036e-03
-2.316566300000000040e-03
-2.733976600000000146e-03
-3.030345199999999895e-03
-3.168489899999999901e-03
-3.146451199999999830e-03
-2.992915999999999979e-03
-2.752133999999999830e-03
-2.468371699999999825e-03
-2.176421699999999803e-03
-3.822706000000000259e-04
-6.117405000000000021e-04
-8.980757000000000453e-04
-1.234728800000000097e-03
-1.601774000000000036e-03
-1.965274800000000200e-03
-2.282678499999999961e-03
-2.513921699999999929e-03
-2.633604199999999961e-03
-2.637858800000000142e-03
-2.542693200000000018e-03
-2.375938299999999850e-03
-2.167838799999999896e-03
-6.002915000000000377e-04
-8.341846999999999891e-04
-1.100570099999999968e-03
-1.383930399999999932e-03
-1.660514199999999939e-03
-1.902032699999999920e-03
-2.082235100000000023e-03
-2.183872099999999931e-03
-2.202834099999999903e-03
-2.147712999999999879e-03
-2.035599199999999984e-03
-9.739386999999999524e-04
-1.193022900000000053e-03
-1.404405500000000017e-03
-1.589212200000000071e-03
-1.730134500000000096e-03
-1.815441699999999908e-03
-1.841466699999999958e-03
9.140081000000000420e-04
8.736033999999999510e-04
8.120662999999999536e-04
7.321892000000000201e-04
6.389247000000000459e-04
1.053863799999999991e-03
1.059115399999999933e-03
1.038610599999999912e-03
9.894348000000000292e-04
9.117701000000000408e-04
8.096073000000000505e-04
6.903904999999999894e-04
5.635310999999999619e-04
4.383629999999999905e-04
3.223949000000000259e-04
1.097753599999999911e-03
1.153619800000000098e-03
1.191077399999999941e-03
1.202293099999999929e-03
1.179881600000000016e-03
1.118864100000000047e-03
1.018934499999999939e-03
8.859484000000000369e-04
7.314208999999999685e-04
5.697945000000000483e-04
4.147293999999999937e-04
2.762317999999999935e-04
1.596209000000000018e-04
1.131742999999999942e-03
1.216737000000000070e-03
1.289690200000000089e-03
1.341085699999999912e-03
1.359706200000000090e-03
1.334238900000000051e-03
1.256344499999999904e-03
1.124755000000000069e-03
9.483662999999999598e-04
7.455342000000000219e-04
5.388473999999999868e-04
3.482377000000000150e-04
1.863818000000000050e-04
5.798919999999999699e-05
-3.819720000000000081e-05
1.124352300000000006e-03
1.232671799999999910e-03
1.337553300000000108e-03
1.429806299999999931e-03
1.496744300000000041e-03
1.522560199999999911e-03
1.490286499999999908e-03
1.386418099999999973e-03
1.208164799999999909e-03
9.697253000000000513e-04
7.012281999999999890e-04
4.383534000000000237e-04
2.094400000000000005e-04
2.869770000000000139e-05
-1.026173999999999977e-04
-1.910423000000000123e-04
-2.459343999999999810e-04
1.199203499999999985e-03
1.326355499999999936e-03
1.451414299999999932e-03
1.562683499999999994e-03
1.643205499999999967e-03
1.670945000000000069e-03
1.621202900000000063e-03
1.473393199999999993e-03
1.223389999999999981e-03
8.955502000000000167e-04
5.405059000000000252e-04
2.140229000000000003e-04
-4.652089999999999703e-05
-2.300601000000000100e-04
-3.446923999999999865e-04
-4.065234000000000252e-04
-4.318745000000000136e-04
1.122737200000000022e-03
1.259246299999999992e-03
1.403094099999999947e-03
1.545279799999999936e-03
1.670310699999999959e-03
1.754735899999999979e-03
1.767405299999999990e-03
1.673338400000000045e-03
1.444318999999999898e-03
1.079050900000000108e-03
6.234978000000000395e-04
1.635088000000000090e-04
-2.182414999999999941e-04
-4.813497000000000240e-04
-6.300592000000000475e-04
-6.917851000000000252e-04
-6.970878000000000447e-04
-6.702439000000000357e-04
-6.275760000000000236e-04
1.015876300000000078e-03
1.149002500000000050e-03
1.295782400000000016e-03
1.450804900000000073e-03
1.602176099999999895e-03
1.728092700000000105e-03
1.793990899999999954e-03
1.753331500000000071e-03
1.556362699999999958e-03
1.170825400000000040e-03
6.150717999999999680e-04
-1.584170000000000115e-05
-5.792052999999999481e-04
-9.684070000000000135e-04
-1.163509100000000105e-03
-1.207716499999999908e-03
-1.160035999999999923e-03
-1.067780400000000081e-03
-9.607523999999999665e-04
-8.549264000000000212e-04
1.013588900000000036e-03
1.149698399999999916e-03
1.299676000000000043e-03
1.456331099999999979e-03
1.603168500000000038e-03
1.708258899999999915e-03
1.718158900000000102e-03
1.558718900000000043e-03
1.155315700000000096e-03
4.811896999999999984e-04
-3.822718999999999813e-04
-1.232678299999999958e-03
-1.847491099999999968e-03
-2.129726000000000188e-03
-2.132854400000000136e-03
-1.971526500000000091e-03
-1.743703899999999966e-03
-1.508309100000000029e-03
-1.292974300000000005e-03
-1.106996000000000065e-03
9.877467000000000885e-04
1.119619199999999934e-03
1.263035000000000026e-03
1.407947000000000105e-03
1.531342700000000012e-03
1.587191699999999971e-03
1.494594099999999948e-03
1.136223299999999893e-03
3.967826000000000252e-04
-7.320681000000000323e-04
-2.035141500000000030e-03
-3.116066800000000074e-03
-3.665490300000000083e-03
-3.672565200000000099e-03
-3.336687999999999980e-03
-2.868693600000000055e-03
-2.399495299999999855e-03
-1.986286600000000072e-03
-1.643694200000000083e-03
-1.367428099999999994e-03
9.367676000000000128e-04
1.056091600000000092e-03
1.181523099999999896e-03
1.299029699999999961e-03
1.377653900000000041e-03
1.355392300000000071e-03
1.120898900000000037e-03
5.083124999999999753e-04
-6.432534000000000168e-04
-2.309866500000000000e-03
-4.090574599999999804e-03
-5.347238199999999886e-03
-5.711117699999999735e-03
-5.327809699999999996e-03
-4.578929899999999685e-03
-3.767628500000000033e-03
-3.042557999999999895e-03
-2.447674700000000182e-03
-1.978373500000000021e-03
-1.613874300000000053e-03
-1.331515300000000014e-03
8.616350000000000267e-04
9.603114999999999958e-04
1.056711299999999994e-03
1.132093999999999939e-03
1.147497799999999983e-03
1.027296399999999945e-03
6.381849999999999893e-04
-2.146689000000000073e-04
-1.708563300000000068e-03
-3.771642899999999837e-03
-5.855366400000000006e-03
-7.168360900000000230e-03
-7.337356500000000344e-03
-6.635168299999999984e-03
-5.566221700000000341e-03
-4.490807999999999779e-03
-3.566990999999999825e-03
-2.828878999999999855e-03
-2.258162199999999824e-03
-1.822072400000000021e-03
-1.488889300000000070e-03
7.661859000000000464e-04
8.379366000000000505e-04
8.972515000000000135e-04
9.209809999999999698e-04
8.642656000000000080e-04
6.449793999999999796e-04
1.266677999999999869e-04
-8.756894000000000526e-04
-2.504753000000000188e-03
-4.636465099999999805e-03
-6.698284300000000198e-03
-7.934487199999999685e-03
-8.017017700000000219e-03
-7.226930599999999670e-03
-6.064357799999999660e-03
-4.895006000000000357e-03
-3.886127899999999944e-03
-3.077151900000000065e-03
-2.450482400000000057e-03
-1.971505900000000006e-03
-1.605880299999999953e-03
6.566808000000000367e-04
6.983808000000000203e-04
7.176596000000000364e-04
6.885926000000000113e-04
5.646464999999999818e-04
2.670613000000000175e-04
-3.235186999999999828e-04
-1.349469399999999979e-03
-2.889131799999999917e-03
-4.788980400000000109e-03
-6.566449299999999913e-03
-7.635247099999999988e-03
-7.736048599999999914e-03
-7.068330400000000409e-03
-6.028412000000000354e-03
-4.938134000000000273e-03
-3.966513399999999773e-03
-3.168062200000000203e-03
-2.538208000000000131e-03
-2.050356499999999877e-03
-1.674341700000000002e-03
5.406986999999999601e-04
5.528659999999999478e-04
5.347620000000000411e-04
4.602273999999999840e-04
2.859712000000000040e-04
-5.483020000000000233e-05
-6.523743999999999724e-04
-1.596748700000000069e-03
-2.909329600000000200e-03
-4.441293600000000008e-03
-5.840985600000000132e-03
-6.709920000000000294e-03
-6.858189800000000051e-03
-6.394004099999999607e-03
-5.584610299999999937e-03
-4.679461099999999811e-03
-3.832679600000000065e-03
-3.110032999999999895e-03
-2.522945300000000064e-03
-2.057659900000000184e-03
-1.692553700000000091e-03
4.120099000000000005e-04
3.634927999999999835e-04
2.562773999999999868e-04
5.402139999999999747e-05
-2.939826000000000201e-04
-8.476119999999999748e-04
-1.653867199999999905e-03
-2.701059200000000080e-03
-3.866584399999999869e-03
-4.914934499999999880e-03
-5.593111300000000105e-03
-5.769474099999999731e-03
-5.490849699999999708e-03
-4.919137599999999846e-03
-4.228893000000000062e-03
-3.545632099999999984e-03
-2.935651200000000127e-03
-2.421673200000000123e-03
-2.002086799999999982e-03
2.839437000000000102e-04
2.140444999999999934e-04
8.828649999999999573e-05
-1.211969000000000051e-04
-4.493149999999999900e-04
-9.314148999999999649e-04
-1.586484700000000006e-03
-2.390109300000000173e-03
-3.250750499999999904e-03
-4.017211799999999972e-03
-4.533433899999999780e-03
-4.711578099999999721e-03
-4.566563800000000319e-03
-4.189940900000000377e-03
-3.695015600000000049e-03
-3.174812500000000117e-03
-2.687303800000000100e-03
-2.259576699999999924e-03
-1.898402200000000057e-03
9.118839999999999585e-05
-4.078899999999999860e-05
-2.421897999999999965e-04
-5.350647999999999732e-04
-9.378757999999999626e-04
-1.454295399999999900e-03
-2.058605199999999878e-03
-2.686158100000000156e-03
-3.241593499999999815e-03
-3.629502299999999831e-03
-3.792662400000000166e-03
-3.732126200000000175e-03
-3.497319799999999874e-03
-3.158054600000000187e-03
-2.778640800000000029e-03
-2.404875199999999963e-03
-2.062799399999999846e-03
-1.339171000000000057e-04
-3.181071999999999958e-04
-5.701417999999999764e-04
-8.981430000000000099e-04
-1.298711799999999975e-03
-1.749572600000000007e-03
-2.206394600000000181e-03
-2.609271600000000017e-03
-2.899772200000000182e-03
-3.041045899999999906e-03
-3.029232900000000065e-03
-2.890102800000000135e-03
-2.665206199999999893e-03
-2.396919799999999798e-03
-2.118969200000000129e-03
-3.599173000000000107e-04
-5.718223000000000359e-04
-8.351015999999999734e-04
-1.143861300000000025e-03
-1.480456200000000071e-03
-1.814889500000000039e-03
-2.109351700000000000e-03
-2.327734799999999979e-03
-2.446325599999999833e-03
-2.460227399999999863e-03
-2.382460400000000009e-03
-2.237229500000000038e-03
-2.051608300000000006e-03
-1.849288900000000020e-03
-5.534157000000000486e-04
-7.634484999999999666e-04
-1.001599599999999923e-03
-1.254519200000000015e-03
-1.501966900000000068e-03
-1.719821199999999918e-03
-1.885442100000000011e-03
-1.983452599999999903e-03
-2.009363200000000189e-03
-1.969518400000000100e-03
-1.877851100000000077e-03
-1.751350499999999996e-03
-8.763291999999999783e-04
-1.068325099999999995e-03
-1.253925099999999952e-03
-1.417506299999999903e-03
-1.544607400000000061e-03
-1.625120299999999966e-03
-1.655361400000000078e-03
-1.638256700000000066e-03
1.074282499999999925e-03
1.062786800000000082e-03
1.025673900000000039e-03
9.626240999999999574e-04
8.763891000000000216e-04
7.726191000000000308e-04
6.588438999999999754e-04
1.179277100000000094e-03
1.223773000000000048e-03
1.245127499999999906e-03
1.236503599999999896e-03
1.192943599999999899e-03
1.113234399999999975e-03
1.001214000000000054e-03
8.656121000000000128e-04
7.181752000000000014e-04
5.708583999999999620e-04
4.333715999999999827e-04
1.265175199999999962e-03
1.348414100000000070e-03
1.413570899999999934e-03
1.450173199999999982e-03
1.447272500000000052e-03
1.396037400000000065e-03
1.293301900000000046e-03
1.144469800000000011e-03
9.635492000000000275e-04
7.695097999999999825e-04
5.808039000000000517e-04
4.110439000000000237e-04
2.674738000000000072e-04
1.518272000000000089e-04
1.306938199999999961e-03
1.427802500000000105e-03
1.540850899999999949e-03
1.634500899999999975e-03
1.693591300000000036e-03
1.700720599999999954e-03
1.640164300000000047e-03
1.504600200000000103e-03
1.301693000000000034e-03
1.054913100000000022e-03
7.960188999999999893e-04
5.538627999999999650e-04
3.468324999999999967e-04
1.817738999999999911e-04
5.716590000000000099e-05
-3.282229999999999913e-05
1.297738899999999976e-03
1.447800099999999989e-03
1.602884900000000040e-03
1.753474400000000011e-03
1.884635499999999910e-03
1.975043799999999950e-03
1.997612699999999977e-03
1.924652599999999991e-03
1.740280600000000070e-03
1.455505800000000006e-03
1.111582399999999984e-03
7.634567000000000523e-04
4.560213000000000244e-04
2.116563000000000016e-04
3.258129999999999924e-05
-9.033280000000000357e-05
-1.698217999999999874e-04
1.239694699999999974e-03
1.405423499999999999e-03
1.588084700000000045e-03
1.782257700000000004e-03
1.976968799999999794e-03
2.153406300000000172e-03
2.282520000000000122e-03
2.323674200000000033e-03
2.229679300000000138e-03
1.968206499999999859e-03
1.555934400000000056e-03
1.069010100000000046e-03
6.043137000000000075e-04
2.284379999999999972e-04
-3.898800000000000009e-05
-2.103672000000000007e-04
-3.096476999999999932e-04
-3.599057999999999923e-04
-3.789457000000000199e-04
1.142807399999999944e-03
1.309274499999999982e-03
1.500863100000000101e-03
1.716801499999999958e-03
1.951735299999999900e-03
2.192630100000000134e-03
2.415088699999999935e-03
2.579494900000000191e-03
2.627261300000000195e-03
2.483237200000000186e-03
2.088754799999999797e-03
1.474485200000000057e-03
7.865974000000000186e-04
1.925716000000000114e-04
-2.233632999999999897e-04
-4.666684000000000262e-04
-5.830995999999999966e-04
-6.200277000000000132e-04
-6.123977000000000066e-04
-5.823116999999999833e-04
1.176140700000000020e-03
1.358946300000000084e-03
1.573035699999999993e-03
1.818722500000000001e-03
2.090217100000000151e-03
2.370207300000000145e-03
2.623004300000000063e-03
2.788768999999999970e-03
2.781238399999999816e-03
2.492528999999999838e-03
1.842400799999999953e-03
9.127141999999999764e-04
-1.429610000000000022e-05
-6.805611000000000256e-04
-1.028879599999999893e-03
-1.140397299999999911e-03
-1.117675800000000105e-03
-1.033906499999999971e-03
-9.303433000000000275e-04
-8.270126000000000040e-04
-7.322575000000000004e-04
1.186918900000000004e-03
1.380075300000000024e-03
1.609147299999999893e-03
1.875078899999999948e-03
2.170340399999999906e-03
2.468976700000000135e-03
2.711329599999999940e-03
2.789854100000000066e-03
2.555259900000000136e-03
-1.773565499999999904e-03
-2.274562200000000006e-03
-2.307964100000000057e-03
-2.102139800000000103e-03
-1.821087899999999970e-03
-1.545447900000000013e-03
-1.304697299999999947e-03
-1.104393800000000011e-03
-9.409267999999999712e-04
1.008452400000000096e-03
1.170108999999999906e-03
1.364644500000000097e-03
1.596474000000000070e-03
1.865916600000000003e-03
2.161502100000000075e-03
2.443112500000000058e-03
2.610190000000000080e-03
2.461006200000000026e-03
-4.691998200000000244e-03
-4.045358399999999903e-03
-3.303820900000000154e-03
-2.646959700000000183e-03
-2.118699300000000032e-03
-1.709657299999999946e-03
-1.396441700000000024e-03
-1.156079099999999995e-03
9.686669999999999872e-04
1.122644099999999933e-03
1.307251699999999964e-03
1.525585299999999978e-03
1.775053900000000051e-03
2.037000499999999919e-03
2.252202500000000194e-03
2.268791799999999876e-03
1.760522299999999927e-03
-7.501537899999999835e-03
-5.938922600000000329e-03
-4.555827299999999809e-03
-3.480908000000000006e-03
-2.684847800000000027e-03
-2.103218100000000049e-03
-1.676947100000000064e-03
-1.360955600000000052e-03
9.065189000000000190e-04
1.044605099999999917e-03
1.207318499999999930e-03
1.394485499999999949e-03
1.597736700000000013e-03
1.787548699999999937e-03
1.882951699999999918e-03
1.686712300000000036e-03
-1.175226790000000014e-02
-9.702534500000000242e-03
-7.442734399999999598e-03
-5.568647900000000227e-03
-4.167271000000000170e-03
-3.157581500000000187e-03
-2.435773200000000086e-03
-1.916350499999999995e-03
-1.537323200000000013e-03
8.247374000000000024e-04
9.398664999999999841e-04
1.070493100000000086e-03
1.211691499999999937e-03
1.347413700000000018e-03
1.435882899999999960e-03
1.378054700000000106e-03
9.568221000000000018e-04
-2.420273999999999928e-04
-1.259429790000000070e-02
-1.048256900000000061e-02
-8.113194400000000792e-03
-6.103259100000000235e-03
-4.575158499999999913e-03
-3.463259800000000055e-03
-2.664582300000000077e-03
-2.089027600000000016e-03
-1.669316500000000069e-03
-1.358273899999999992e-03
7.281860000000000242e-04
8.157454000000000181e-04
9.081523999999999890e-04
9.955629000000000561e-04
1.054925200000000028e-03
1.035850000000000052e-03
8.339509999999999848e-04
2.493644999999999738e-04
-1.042174000000000095e-03
-3.382703899999999798e-03
-9.971286399999999481e-03
-1.174732690000000052e-02
-1.148965530000000020e-02
-9.892493400000000603e-03
-7.908327300000000254e-03
-6.101297599999999655e-03
-4.656535100000000309e-03
-3.567903299999999975e-03
-2.766872999999999989e-03
-2.179930300000000164e-03
-1.746945499999999919e-03
-1.423493999999999975e-03
6.816170000000000301e-04
7.348295999999999821e-04
7.692566999999999764e-04
7.580418000000000442e-04
6.496267999999999921e-04
3.501366999999999913e-04
-2.953014000000000116e-04
-1.493409200000000081e-03
-3.394833299999999981e-03
-5.839387700000000375e-03
-8.164543200000000736e-03
-9.518851199999999249e-03
-9.537536900000000845e-03
-8.540163700000000593e-03
-7.106889800000000187e-03
-5.675875399999999633e-03
-4.452629900000000356e-03
-3.484135199999999818e-03
-2.744687500000000165e-03
-2.187606800000000198e-03
-1.767917500000000097e-03
5.470082999999999716e-04
5.647090999999999699e-04
5.540486000000000065e-04
4.883812999999999653e-04
3.220343999999999876e-04
-1.831609999999999901e-05
-6.364088999999999640e-04
-1.643557500000000088e-03
-3.081104600000000079e-03
-4.795626199999999950e-03
-6.386117699999999987e-03
-7.379166599999999708e-03
-7.539243099999999760e-03
-6.988923000000000184e-03
-6.046630699999999692e-03
-5.009463999999999931e-03
-4.056305599999999838e-03
-3.257761000000000077e-03
-2.620253300000000007e-03
-2.122709100000000002e-03
-1.737237399999999902e-03
4.088065000000000102e-04
3.646691999999999881e-04
2.641535999999999776e-04
7.125849999999999546e-05
-2.650999999999999928e-04
-8.066611000000000007e-04
-1.604464099999999924e-03
-2.652713599999999890e-03
-3.833947999999999783e-03
-4.912145599999999911e-03
-5.624744000000000098e-03
-5.825749800000000131e-03
-5.553419700000000216e-03
-4.972291000000000211e-03
-4.265851299999999860e-03
-3.567319399999999922e-03
-2.946426399999999956e-03
-2.426052699999999961e-03
-2.003386299999999898e-03
-1.665054999999999921e-03
2.737479999999999818e-04
2.081479999999999865e-04
9.046419999999999353e-05
-1.051784999999999960e-04
-4.112367000000000127e-04
-8.607871000000000446e-04
-1.472331400000000037e-03
-2.225211099999999977e-03
-3.037449700000000030e-03
-3.770694399999999918e-03
-4.277927200000000013e-03
-4.470783800000000148e-03
-4.355763099999999943e-03
-4.014659400000000419e-03
-3.554192700000000094e-03
-3.064346999999999818e-03
-2.602210900000000073e-03
-2.194980200000000090e-03
-1.849945300000000077e-03
8.524879999999999600e-05
-3.637160000000000257e-05
-2.200910000000000041e-04
-4.849456999999999943e-04
-8.466818000000000087e-04
-1.308314500000000045e-03
-1.847947099999999992e-03
-2.410684000000000177e-03
-2.914880700000000140e-03
-3.277000999999999872e-03
-3.443954500000000109e-03
-3.411981100000000162e-03
-3.220603099999999868e-03
-2.929672400000000055e-03
-2.596417100000000203e-03
-2.262891799999999787e-03
-1.953916799999999825e-03
-1.680682100000000000e-03
-1.242015999999999867e-04
-2.887958000000000040e-04
-5.112434000000000119e-04
-7.977308999999999485e-04
-1.144934000000000012e-03
-1.534327399999999963e-03
-1.929760599999999970e-03
-2.282394499999999826e-03
-2.543806500000000189e-03
-2.681886799999999918e-03
-2.690648400000000048e-03
-2.588717199999999996e-03
-2.409016099999999969e-03
-2.186685800000000117e-03
-1.950810799999999927e-03
-1.721336099999999994e-03
-3.250368999999999915e-04
-5.087931000000000398e-04
-7.343949999999999914e-04
-9.966042999999999950e-04
-1.281098000000000046e-03
-1.564128799999999972e-03
-1.815922200000000047e-03
-2.007700900000000156e-03
-2.119715999999999788e-03
-2.146406500000000179e-03
-2.096292799999999873e-03
-1.987350499999999878e-03
-1.840781799999999940e-03
-1.675971100000000092e-03
-6.680430000000000005e-04
-8.678387999999999554e-04
-1.078974099999999939e-03
-1.285745999999999938e-03
-1.469583399999999920e-03
-1.612894400000000053e-03
-1.703252200000000003e-03
-1.736172999999999926e-03
-1.715364600000000026e-03
-1.650642400000000044e-03
-1.554727899999999979e-03
-1.072038200000000052e-03
-1.209263699999999940e-03
-1.318393800000000008e-03
-1.391407400000000023e-03
-1.424877900000000048e-03
-1.420254300000000020e-03
9.988218000000000530e-04
9.479440999999999692e-04
8.770110999999999489e-04
1.187113199999999908e-03
1.209619299999999988e-03
1.206648500000000006e-03
1.174200399999999946e-03
1.111100500000000019e-03
1.019902500000000002e-03
9.068324000000000220e-04
7.806148999999999857e-04
6.506131000000000067e-04
1.243942999999999958e-03
1.323687399999999960e-03
1.387526700000000059e-03
1.426689600000000070e-03
1.432168799999999995e-03
1.396703399999999927e-03
1.317323200000000086e-03
1.197382500000000044e-03
1.046718600000000072e-03
8.794153000000000300e-04
7.101642999999999931e-04
5.510197999999999789e-04
4.097605000000000149e-04
1.306556400000000086e-03
1.425181399999999893e-03
1.537251099999999929e-03
1.632664000000000034e-03
1.698379899999999951e-03
1.719626099999999958e-03
1.683029300000000051e-03
1.581609899999999970e-03
1.419541500000000029e-03
1.213110699999999905e-03
9.861520999999999395e-04
7.624668000000000027e-04
5.597427000000000305e-04
3.874363000000000026e-04
2.479518000000000000e-04
1.322587500000000022e-03
1.474702800000000100e-03
1.633204099999999897e-03
1.789823000000000065e-03
1.931466099999999990e-03
2.039290000000000026e-03
2.089245500000000162e-03
2.056389200000000115e-03
1.924632699999999927e-03
1.698348400000000051e-03
1.406085100000000095e-03
1.090449999999999970e-03
7.911583000000000244e-04
5.335389000000000494e-04
3.270589999999999869e-04
1.700165000000000010e-04
5.519019999999999888e-05
1.289685500000000004e-03
1.463766399999999945e-03
1.657435100000000106e-03
1.866816000000000092e-03
2.083279700000000186e-03
2.291098699999999898e-03
2.464525600000000167e-03
2.565535800000000137e-03
2.547484500000000204e-03
2.373179899999999874e-03
2.044298200000000017e-03
1.614532300000000005e-03
1.164823599999999931e-03
7.626458000000000022e-04
4.411611000000000070e-04
2.037957999999999979e-04
3.828939999999999969e-05
-7.204010000000000166e-05
-1.425441999999999963e-04
1.394959899999999959e-03
1.606100500000000016e-03
1.848422499999999909e-03
2.120093300000000080e-03
2.413534699999999970e-03
2.711818999999999862e-03
2.982933899999999985e-03
3.170732500000000061e-03
3.189901000000000195e-03
2.954038600000000181e-03
2.451934900000000105e-03
1.793532200000000094e-03
1.142084200000000093e-03
6.102694000000000087e-04
2.296266999999999948e-04
-1.904369999999999861e-05
-1.704064999999999888e-04
-2.562194999999999750e-04
-3.001076999999999998e-04
1.280619900000000075e-03
1.490061999999999897e-03
1.740332200000000102e-03
2.036357400000000061e-03
2.379857600000000184e-03
2.765842699999999932e-03
3.177773400000000192e-03
3.579978399999999856e-03
3.899224000000000179e-03
3.990520899999999878e-03
3.657206000000000085e-03
2.844896999999999877e-03
1.800775199999999970e-03
8.665625000000000367e-04
2.090368999999999908e-04
-1.839788000000000079e-04
-3.900981999999999779e-04
-4.821982999999999738e-04
-5.103033999999999565e-04
-5.046083999999999509e-04
-4.822370999999999776e-04
1.330487800000000045e-03
1.565582000000000041e-03
1.853466800000000067e-03
2.203786799999999952e-03
2.623287599999999959e-03
3.110139100000000080e-03
3.645693099999999798e-03
4.186076700000000185e-03
7.513299999999999707e-06
-6.487872000000000213e-04
-9.096876999999999741e-04
-9.609780999999999532e-04
-9.185069000000000133e-04
-8.414597000000000439e-04
-7.569919999999999514e-04
-6.764194999999999973e-04
1.151693899999999948e-03
1.355922700000000095e-03
1.610527600000000040e-03
1.929051900000000076e-03
2.326612599999999809e-03
2.816144999999999933e-03
3.398263900000000198e-03
4.040380199999999734e-03
-2.222991100000000150e-03
-2.045025800000000067e-03
-1.759717299999999937e-03
-1.481424600000000053e-03
-1.243679799999999978e-03
-1.049799500000000085e-03
-8.938782999999999625e-04
-7.684373999999999892e-04
1.141287800000000000e-03
1.350126699999999909e-03
1.613764300000000056e-03
1.948841399999999904e-03
2.375266999999999917e-03
2.911972999999999992e-03
3.560959600000000030e-03
4.259954399999999961e-03
-4.624162599999999575e-03
-3.573955399999999890e-03
-2.746832399999999969e-03
-2.135836400000000034e-03
-1.690800300000000001e-03
-1.364579099999999913e-03
-1.121790299999999999e-03
-9.377062000000000244e-04
1.104693300000000010e-03
1.308303000000000027e-03
1.566554400000000086e-03
1.896783499999999930e-03
2.320133399999999967e-03
2.856744699999999842e-03
3.504469699999999879e-03
-7.446506900000000179e-03
-5.251552199999999677e-03
-3.782230900000000014e-03
-2.801215000000000128e-03
-2.135372999999999872e-03
-1.672505400000000048e-03
-1.342088699999999983e-03
-1.099888499999999991e-03
1.041660399999999945e-03
1.229326599999999974e-03
1.465804399999999941e-03
1.765391000000000052e-03
2.143867499999999992e-03
2.611003099999999796e-03
3.141780299999999936e-03
-9.720518200000000109e-03
-6.636794300000000216e-03
-4.653271900000000363e-03
-3.368406200000000073e-03
-2.518040300000000137e-03
-1.939601900000000089e-03
-1.534423899999999910e-03
-1.242300000000000001e-03
9.548383999999999821e-04
1.116849799999999893e-03
1.316586800000000071e-03
1.561706200000000013e-03
1.856080100000000004e-03
2.187211200000000171e-03
2.487753100000000134e-03
-1.529108839999999969e-02
-1.062558719999999977e-02
-7.348393100000000407e-03
-5.172391000000000141e-03
-3.739986800000000104e-03
-2.785571299999999809e-03
-2.135379000000000183e-03
-1.680557299999999943e-03
-1.353592800000000089e-03
8.495974000000000321e-04
9.791166999999999492e-04
1.132088199999999913e-03
1.307905299999999934e-03
1.496421300000000051e-03
1.661598499999999978e-03
1.700641300000000017e-03
1.348616499999999918e-03
-1.377330899999999921e-02
-1.014957499999999922e-02
-7.301169300000000251e-03
-5.268940700000000407e-03
-3.868842600000000145e-03
-2.908226099999999901e-03
-2.241145899999999816e-03
-1.768565900000000028e-03
-1.425990999999999934e-03
7.331285999999999792e-04
8.273167000000000541e-04
9.304030000000000026e-04
1.034557800000000024e-03
1.119055899999999966e-03
1.134611599999999984e-03
9.715108000000000294e-04
4.046341999999999756e-04
-9.591823000000000406e-04
-1.355439219999999938e-02
-1.322923250000000023e-02
-1.125816179999999944e-02
-8.838748199999999638e-03
-6.680331000000000290e-03
-5.000120599999999596e-03
-3.769324100000000146e-03
-2.886884000000000151e-03
-2.254140300000000065e-03
-1.795193899999999922e-03
-1.456643400000000007e-03
6.731273000000000291e-04
7.297299000000000146e-04
7.706713000000000018e-04
7.707754000000000471e-04
6.804423999999999889e-04
4.071735999999999737e-04
-2.051743999999999985e-04
-1.370547300000000057e-03
-3.255863500000000070e-03
-5.725327700000000346e-03
-8.134264100000000025e-03
-9.608696700000000576e-03
-9.716362299999999758e-03
-8.731239599999999351e-03
-7.252551999999999784e-03
-5.762899800000000419e-03
-4.494650000000000208e-03
-3.499786999999999863e-03
-2.747803400000000187e-03
-2.186109700000000121e-03
-1.765599600000000062e-03
-1.447695799999999984e-03
5.264793000000000467e-04
5.443972999999999521e-04
5.365882000000000204e-04
4.788009999999999987e-04
3.294967999999999790e-04
2.207419999999999950e-05
-5.376207999999999942e-04
-1.451229999999999968e-03
-2.760423000000000130e-03
-4.338058500000000275e-03
-5.835808300000000157e-03
-6.821491800000000112e-03
-7.049241300000000029e-03
-6.596325000000000105e-03
-5.745724899999999670e-03
-4.782960699999999968e-03
-3.887730700000000070e-03
-3.133780599999999843e-03
-2.530149599999999971e-03
-2.057884800000000115e-03
-1.690954699999999960e-03
-1.405207199999999965e-03
3.831115999999999862e-04
3.421779000000000227e-04
2.512147999999999855e-04
7.946820000000000598e-05
-2.159922999999999954e-04
-6.862418999999999594e-04
-1.373058300000000020e-03
-2.272445200000000175e-03
-3.291349600000000042e-03
-4.239552800000000003e-03
-4.896995200000000409e-03
-5.127692500000000271e-03
-4.945456600000000189e-03
-4.478934199999999588e-03
-3.884401200000000068e-03
-3.281518900000000068e-03
-2.736383700000000023e-03
-2.273331799999999802e-03
-1.892861800000000079e-03
-1.585109599999999898e-03
1.888441000000000035e-04
8.357390000000000294e-05
-8.737269999999999781e-05
-3.494063000000000160e-04
-7.276071999999999748e-04
-1.235158799999999928e-03
-1.855357100000000004e-03
-2.525589600000000164e-03
-3.140263199999999977e-03
-3.584181300000000188e-03
-3.782229700000000038e-03
-3.730133499999999797e-03
-3.484871000000000062e-03
-3.128506899999999955e-03
-2.734588000000000036e-03
-2.352719300000000180e-03
-2.008783799999999935e-03
-1.711880999999999950e-03
7.280690000000000252e-05
-3.429599999999999825e-05
-1.921031000000000073e-04
-4.145485999999999767e-04
-7.124529000000000105e-04
-1.086758099999999986e-03
-1.520203699999999941e-03
-1.972029900000000016e-03
-2.382301400000000000e-03
-2.688690200000000158e-03
-2.848915400000000177e-03
-2.855247600000000198e-03
-2.732428299999999956e-03
-2.522820900000000144e-03
-2.269787100000000141e-03
-2.007324899999999874e-03
-1.757177699999999980e-03
-1.530587400000000056e-03
-1.137175000000000035e-04
-2.533222999999999920e-04
-4.378372999999999965e-04
-6.708534999999999629e-04
-9.488685000000000175e-04
-1.257646000000000068e-03
-1.570868900000000094e-03
-1.853554099999999913e-03
-2.070661899999999989e-03
-2.197650199999999845e-03
-2.227514700000000122e-03
-2.170742099999999845e-03
-2.049174899999999834e-03
-1.887940600000000049e-03
-1.709253499999999941e-03
-1.529502299999999961e-03
-2.853695000000000060e-04
-4.367808999999999841e-04
-6.192844999999999557e-04
-8.283315000000000296e-04
-1.053115000000000084e-03
-1.276537699999999919e-03
-1.477526399999999976e-03
-1.635565999999999973e-03
-1.735893399999999991e-03
-1.773053300000000014e-03
-1.751278999999999900e-03
-1.681918500000000082e-03
-1.579506500000000006e-03
-1.458233699999999990e-03
-5.661671000000000498e-04
-7.256791999999999757e-04
-8.929478000000000025e-04
-1.056705399999999934e-03
-1.203835799999999944e-03
-1.321838199999999944e-03
-1.401505200000000007e-03
-1.438798200000000098e-03
-1.435227000000000074e-03
-1.396751500000000066e-03
-1.331840200000000002e-03
-9.997654000000000350e-04
-1.089926099999999993e-03
-1.153750199999999896e-03
-1.188293399999999908e-03
1.122500999999999924e-03
1.096871900000000004e-03
1.046756299999999917e-03
9.739157000000000239e-04
8.826396999999999715e-04
1.295111500000000002e-03
1.328292600000000002e-03
1.333941099999999980e-03
1.306931099999999926e-03
1.245218499999999930e-03
1.151033199999999942e-03
1.030963900000000065e-03
8.946810999999999610e-04
7.527840999999999743e-04
6.146928999999999978e-04
1.352053499999999932e-03
1.449326099999999947e-03
1.531239999999999902e-03
1.587616800000000083e-03
1.607512200000000028e-03
1.581485400000000015e-03
1.504748399999999899e-03
1.379915800000000060e-03
1.217549199999999913e-03
1.033666300000000027e-03
8.453723999999999700e-04
6.668794000000000241e-04
5.074702999999999853e-04
1.422301599999999935e-03
1.564492200000000078e-03
1.703233900000000051e-03
1.827388000000000103e-03
1.921789400000000056e-03
1.968231100000000008e-03
1.948935200000000015e-03
1.852847900000000004e-03
1.682311699999999941e-03
1.455185600000000103e-03
1.199580100000000038e-03
9.442806000000000203e-04
7.109275999999999660e-04
5.112671999999999963e-04
3.485715000000000016e-04
1.440331800000000046e-03
1.620889799999999980e-03
1.814040999999999961e-03
2.011737999999999894e-03
2.200048799999999860e-03
2.357300599999999878e-03
2.453510700000000131e-03
2.454499900000000050e-03
2.334296599999999798e-03
2.092279199999999909e-03
1.760797599999999914e-03
1.392841799999999970e-03
1.039030499999999985e-03
7.318881000000000171e-04
4.838786000000000194e-04
2.935417999999999751e-04
1.526423000000000005e-04
1.403383200000000086e-03
1.608515299999999917e-03
1.842219699999999996e-03
2.102597500000000057e-03
2.382733699999999965e-03
2.667510599999999878e-03
2.928761900000000085e-03
3.119287899999999975e-03
3.172752500000000208e-03
3.025803000000000086e-03
2.664839100000000044e-03
2.154111900000000093e-03
1.602682200000000090e-03
1.103074500000000065e-03
7.005629999999999670e-04
4.004912000000000120e-04
1.879922999999999924e-04
4.280989999999999817e-05
-5.356189999999999958e-05
1.318031199999999958e-03
1.530314700000000088e-03
1.783045800000000085e-03
2.081263600000000068e-03
2.427589799999999801e-03
2.819562900000000157e-03
3.245435100000000107e-03
3.675940500000000107e-03
4.045978399999999690e-03
4.230117900000000125e-03
4.066371400000000184e-03
3.490191799999999966e-03
2.646427399999999944e-03
1.784110599999999981e-03
1.074167100000000038e-03
5.622414000000000274e-04
2.216685999999999939e-04
6.508999999999999853e-06
-1.240357999999999890e-04
-1.997865000000000090e-04
-2.407998000000000115e-04
1.400670400000000046e-03
1.649334500000000083e-03
1.954405700000000010e-03
2.327359000000000198e-03
2.778831700000000075e-03
3.315648699999999838e-03
3.937050999999999572e-03
4.628448200000000352e-03
5.331218799999999820e-03
1.793587699999999938e-03
8.152025999999999934e-04
2.212492999999999892e-04
-1.097292999999999999e-04
-2.819898000000000153e-04
-3.636264999999999853e-04
-3.949035999999999844e-04
-3.987420999999999782e-04
1.240331899999999989e-03
1.466209100000000036e-03
1.749867599999999990e-03
2.108262499999999807e-03
2.562182399999999791e-03
3.134946799999999839e-03
3.848669600000000079e-03
4.719896900000000207e-03
5.358410000000000083e-05
-4.683121999999999849e-04
-6.627393999999999993e-04
-7.071690000000000051e-04
-6.871051999999999889e-04
-6.418555000000000484e-04
-5.890818000000000356e-04
-5.365056000000000425e-04
1.262382600000000032e-03
1.506092299999999993e-03
1.818885799999999959e-03
2.225124099999999799e-03
2.757757100000000038e-03
3.458924500000000110e-03
4.375465000000000257e-03
5.543730699999999990e-03
-1.642037999999999961e-03
-1.670022099999999990e-03
-1.490612699999999905e-03
-1.281184299999999984e-03
-1.092761700000000058e-03
-9.351652999999999485e-04
-8.060788999999999845e-04
-7.005259000000000008e-04
1.258860299999999986e-03
1.511883500000000061e-03
1.842318899999999997e-03
2.281496799999999884e-03
2.875505500000000159e-03
3.690959199999999801e-03
4.816425200000000115e-03
-3.435182299999999835e-03
-2.574290999999999819e-03
-1.975908699999999983e-03
-1.557155300000000056e-03
-1.257582699999999949e-03
-1.037498200000000047e-03
-8.714781000000000003e-04
1.226216800000000081e-03
1.477067899999999967e-03
1.808012099999999935e-03
2.254267199999999971e-03
2.870740499999999834e-03
3.744608400000000101e-03
5.012908800000000220e-03
-5.504757199999999948e-03
-3.766792900000000017e-03
-2.708097599999999792e-03
-2.031839699999999933e-03
-1.579934999999999977e-03
-1.265158599999999939e-03
-1.037660400000000064e-03
-8.678978000000000170e-04
1.163552399999999909e-03
1.399186800000000019e-03
1.709983100000000023e-03
2.129276099999999859e-03
2.709484700000000090e-03
3.535133700000000004e-03
4.743135400000000022e-03
-1.176068350000000068e-02
-7.294324100000000068e-03
-4.811612300000000370e-03
-3.353769700000000173e-03
-2.452005000000000157e-03
-1.866078200000000032e-03
-1.467780099999999944e-03
-1.185957199999999922e-03
-9.795075000000000743e-04
1.073320200000000071e-03
1.281432000000000100e-03
1.552187299999999897e-03
1.910713099999999899e-03
2.393509900000000135e-03
3.051197500000000021e-03
3.940065300000000076e-03
-1.304328350000000074e-02
-8.253038100000000335e-03
-5.463807799999999618e-03
-3.794550199999999901e-03
-2.756206099999999794e-03
-2.082060000000000161e-03
-1.625555500000000052e-03
-1.304260299999999897e-03
-1.070289000000000093e-03
9.612363999999999978e-04
1.132692100000000065e-03
1.349112100000000002e-03
1.623679999999999958e-03
1.970037400000000140e-03
2.392231800000000144e-03
2.847026800000000170e-03
-1.234140119999999931e-02
-8.234121400000000632e-03
-5.616743399999999699e-03
-3.966400299999999803e-03
-2.906971500000000118e-03
-2.205568499999999935e-03
-1.724791199999999892e-03
-1.383886400000000107e-03
-1.134559800000000101e-03
8.352986000000000395e-04
9.657163000000000292e-04
1.122079000000000002e-03
1.305975600000000006e-03
1.510991699999999962e-03
1.706908499999999990e-03
1.798519499999999896e-03
1.527474999999999927e-03
-1.780313869999999854e-02
-1.429739990000000044e-02
-1.050198119999999971e-02
-7.469382899999999978e-03
-5.326842000000000035e-03
-3.877786499999999990e-03
-2.900894900000000089e-03
-2.231295299999999995e-03
-1.760789299999999903e-03
-1.421167699999999895e-03
-1.169567499999999999e-03
7.941540000000000404e-04
8.931715999999999918e-04
9.946355999999999947e-04
1.080436200000000008e-03
1.107037400000000088e-03
9.774077000000000372e-04
4.940839999999999945e-04
-6.820714000000000507e-04
-2.943382599999999800e-03
-6.309467499999999764e-03
-9.868696399999999855e-03
-1.208446780000000005e-02
-1.212843390000000084e-02
-1.052132539999999991e-02
-8.339400199999999486e-03
-6.328449400000000016e-03
-4.749647099999999671e-03
-3.593035300000000168e-03
-2.764637999999999818e-03
-2.170273500000000078e-03
-1.737990299999999906e-03
-1.417725699999999910e-03
6.297826000000000509e-04
6.800578000000000265e-04
7.160762000000000203e-04
7.162655999999999884e-04
6.391629999999999924e-04
4.094864000000000034e-04
-9.629120000000000398e-05
-1.043278599999999902e-03
-2.560782100000000196e-03
-4.560622299999999955e-03
-6.579087100000000424e-03
-7.935275900000000188e-03
-8.209379399999999424e-03
-7.530990199999999628e-03
-6.364171899999999937e-03
-5.131747800000000144e-03
-4.056166100000000406e-03
-3.198471999999999947e-03
-2.541381200000000177e-03
-2.044346600000000042e-03
-1.667648899999999964e-03
-1.379466399999999902e-03
4.808834000000000112e-04
4.936336000000000369e-04
4.834317000000000085e-04
4.305237999999999860e-04
3.023306000000000019e-04
4.862939999999999895e-05
-3.988403999999999973e-04
-1.111162599999999945e-03
-2.116603199999999955e-03
-3.328924599999999803e-03
-4.508622500000000061e-03
-5.342814000000000417e-03
-5.625779299999999691e-03
-5.377225200000000302e-03
-4.786682599999999774e-03
-4.069794300000000378e-03
-3.374961200000000175e-03
-2.771400099999999853e-03
-2.275580699999999942e-03
-1.878812000000000104e-03
-1.564247599999999934e-03
-1.314793600000000069e-03
3.383198000000000130e-04
2.990469999999999847e-04
2.184327000000000068e-04
7.372179999999999608e-05
-1.653567999999999954e-04
-5.329625999999999851e-04
-1.055053899999999897e-03
-1.726256800000000070e-03
-2.483521800000000092e-03
-3.200791100000000174e-03
-3.728515500000000125e-03
-3.964465799999999755e-03
-3.901629800000000047e-03
-3.615297400000000091e-03
-3.210280099999999852e-03
-2.774974700000000169e-03
-2.364070900000000107e-03
-2.002511499999999958e-03
-1.696335100000000021e-03
-1.442088999999999914e-03
1.586772999999999927e-04
6.756530000000000175e-05
-7.418740000000000057e-05
-2.834172000000000145e-04
-5.754878000000000163e-04
-9.567706000000000040e-04
-1.413914299999999942e-03
-1.904979200000000072e-03
-2.361694799999999959e-03
-2.708851300000000070e-03
-2.893461400000000086e-03
-2.904853399999999912e-03
-2.772550099999999962e-03
-2.546887399999999985e-03
-2.277862099999999890e-03
-2.002953100000000059e-03
-1.744712399999999962e-03
-1.513756900000000089e-03
-3.605040000000000300e-05
-1.655704000000000030e-04
-3.420450000000000226e-04
-5.712973000000000096e-04
-8.521511000000000276e-04
-1.171757500000000004e-03
-1.503038900000000034e-03
-1.807617899999999951e-03
-2.045450900000000179e-03
-2.187576599999999875e-03
-2.225052899999999806e-03
-2.169246699999999913e-03
-2.044551899999999794e-03
-1.878783499999999926e-03
-1.696014299999999914e-03
-1.513480499999999944e-03
-1.341630400000000042e-03
-2.188988000000000056e-04
-3.651630000000000002e-04
-5.450079000000000035e-04
-7.549202999999999556e-04
-9.846283000000000812e-04
-1.216653100000000083e-03
-1.428512999999999962e-03
-1.597646899999999965e-03
-1.707357700000000080e-03
-1.751052600000000108e-03
-1.732869300000000048e-03
-1.664851300000000063e-03
-1.562526899999999936e-03
-1.440953700000000047e-03
-1.312352099999999954e-03
-3.676873999999999789e-04
-5.095644999999999558e-04
-6.691078000000000043e-04
-8.386176999999999651e-04
-1.006654199999999907e-03
-1.159497000000000002e-03
-1.283756399999999966e-03
-1.369323700000000003e-03
-1.411512200000000035e-03
-1.411575700000000004e-03
-1.375580599999999933e-03
-1.312315000000000096e-03
-1.231141800000000106e-03
-7.230080999999999531e-04
-8.482830000000000231e-04
-9.620135000000000144e-04
-1.055880400000000063e-03
-1.123494999999999962e-03
-1.161542200000000068e-03
-1.170146400000000083e-03
-1.152411199999999955e-03
1.196505100000000085e-03
1.174212200000000067e-03
1.125678200000000033e-03
1.052473200000000018e-03
9.589272000000000030e-04
1.314581499999999950e-03
1.377877599999999996e-03
1.419772099999999952e-03
1.432878799999999899e-03
1.411237999999999989e-03
1.352097299999999907e-03
1.257308599999999938e-03
1.133540400000000075e-03
9.909756000000000467e-04
8.409961000000000303e-04
6.938654000000000262e-04
1.434074000000000026e-03
1.544840000000000015e-03
1.640914600000000032e-03
1.711177699999999946e-03
1.743341299999999917e-03
1.726377099999999894e-03
1.654048900000000067e-03
1.528165099999999983e-03
1.359458800000000077e-03
1.165027199999999971e-03
9.635438000000000293e-04
7.707861000000000096e-04
5.972771000000000417e-04
1.509828200000000020e-03
1.669907999999999896e-03
1.829097800000000070e-03
1.975633499999999813e-03
2.092972199999999870e-03
2.160571500000000190e-03
2.157489900000000155e-03
2.069477499999999859e-03
1.896986299999999914e-03
1.658284799999999943e-03
1.383974799999999894e-03
1.106198799999999916e-03
8.496006000000000391e-04
6.279845000000000045e-04
4.457220999999999926e-04
3.010466000000000053e-04
1.529326599999999894e-03
1.731353699999999950e-03
1.950819099999999938e-03
2.179989199999999867e-03
2.404561800000000211e-03
2.601169099999999998e-03
2.735934000000000196e-03
2.768126300000000196e-03
2.664034799999999859e-03
2.418037899999999924e-03
2.063625300000000024e-03
1.660226799999999945e-03
1.266198799999999902e-03
9.199206999999999827e-04
6.370416999999999963e-04
4.172347999999999986e-04
2.522097999999999853e-04
1.312933999999999922e-04
1.489476499999999948e-03
1.718032300000000082e-03
1.982086499999999828e-03
2.281364000000000135e-03
2.610473900000000180e-03
2.955220900000000029e-03
3.286568299999999797e-03
3.551929799999999950e-03
3.671284899999999792e-03
3.560372300000000118e-03
3.190172600000000004e-03
2.628819699999999926e-03
2.004563400000000141e-03
1.429116100000000058e-03
9.587524000000000263e-04
6.025699999999999720e-04
3.455681999999999959e-04
1.658506000000000075e-04
4.295499999999999785e-05
1.397411899999999969e-03
1.633061699999999910e-03
1.917390200000000005e-03
2.258339700000000071e-03
2.662149300000000041e-03
3.130628400000000019e-03
3.656824500000000096e-03
4.215975799999999683e-03
4.741489800000000046e-03
5.082390899999999871e-03
5.012913899999999791e-03
4.410601999999999578e-03
3.437488099999999863e-03
2.410456000000000057e-03
1.550172600000000039e-03
9.184719000000000043e-04
4.876576999999999778e-04
2.059771999999999970e-04
2.672479999999999864e-05
-8.471810000000000462e-05
-1.520128999999999892e-04
1.492244399999999912e-03
1.770815700000000041e-03
2.117974099999999932e-03
2.550527700000000154e-03
3.086451799999999877e-03
3.742361500000000209e-03
4.531138700000000331e-03
5.460731299999999587e-03
2.796153899999999880e-03
1.510806900000000045e-03
7.074744999999999905e-04
2.350688000000000083e-04
-3.363229999999999985e-05
-1.819063000000000103e-04
-2.598600999999999754e-04
-2.968382000000000204e-04
-3.099776999999999849e-04
1.318453499999999983e-03
1.570326699999999949e-03
1.891452799999999903e-03
2.304811300000000028e-03
2.840538999999999998e-03
3.536092700000000033e-03
4.434043900000000232e-03
5.580808599999999807e-03
1.033745200000000045e-03
1.700868999999999927e-04
-2.311544999999999973e-04
-4.071796000000000139e-04
-4.737470000000000027e-04
-4.869734000000000020e-04
-4.744818000000000147e-04
-4.501614000000000028e-04
1.347897899999999901e-03
1.622198999999999950e-03
1.980556000000000070e-03
2.456483800000000030e-03
3.098511300000000076e-03
3.975222500000000214e-03
5.176607300000000272e-03
-8.992631000000000062e-04
-9.828495000000000027e-04
-9.355389999999999887e-04
-8.514729000000000178e-04
-7.629324000000000479e-04
-6.805275999999999860e-04
-6.071444999999999533e-04
1.350450900000000091e-03
1.638205599999999987e-03
2.021886999999999990e-03
2.545698099999999919e-03
3.279735000000000202e-03
4.337196899999999633e-03
5.899560499999999610e-03
-2.632880800000000042e-03
-2.030510000000000127e-03
-1.602788099999999990e-03
-1.297268600000000063e-03
-1.073307799999999963e-03
-9.042394999999999947e-04
-7.731380000000000370e-04
-6.691374000000000150e-04
1.321852500000000050e-03
1.610467499999999929e-03
2.000567300000000073e-03
2.543675000000000016e-03
3.327353300000000010e-03
4.509631200000000124e-03
-4.844256199999999978e-03
-3.253527899999999855e-03
-2.336714299999999821e-03
-1.767821699999999954e-03
-1.391483300000000102e-03
-1.128765099999999924e-03
-9.371536000000000189e-04
-7.924063999999999761e-04
1.260632200000000097e-03
1.535353099999999969e-03
1.908053899999999923e-03
2.430238700000000168e-03
3.191890800000000018e-03
4.362905999999999729e-03
-6.927977200000000162e-03
-4.397162399999999735e-03
-3.016736400000000033e-03
-2.200641699999999947e-03
-1.682646600000000086e-03
-1.333550200000000038e-03
-1.086467899999999905e-03
-9.045385000000000404e-04
1.168977299999999966e-03
1.415465600000000070e-03
1.746917499999999911e-03
2.206068199999999899e-03
2.865294500000000171e-03
3.854131700000000028e-03
-8.216381599999999369e-03
-5.186476599999999965e-03
-3.516533999999999979e-03
-2.532064200000000171e-03
-1.912171299999999938e-03
-1.498558400000000014e-03
-1.208883999999999913e-03
-9.977888999999999769e-04
1.052737399999999907e-03
1.259929799999999966e-03
1.532107800000000056e-03
1.897329199999999967e-03
2.397925400000000106e-03
3.095314000000000051e-03
4.062086000000000342e-03
-8.426309200000000818e-03
-5.465733900000000270e-03
-3.754546499999999835e-03
-2.717944800000000188e-03
-2.054986999999999873e-03
-1.608862599999999954e-03
-1.295126200000000028e-03
-1.066172800000000052e-03
9.204125999999999974e-04
1.082491299999999981e-03
1.287076799999999901e-03
1.546833000000000062e-03
1.874983700000000010e-03
2.275637899999999932e-03
2.708032799999999813e-03
2.969500099999999951e-03
-7.710597300000000126e-03
-5.250149299999999630e-03
-3.720522699999999783e-03
-2.746495800000000112e-03
-2.101927899999999835e-03
-1.657911900000000067e-03
-1.340594700000000096e-03
-1.106446399999999998e-03
7.814725000000000230e-04
8.982229000000000428e-04
1.036833399999999945e-03
1.198012499999999989e-03
1.375391199999999965e-03
1.542807999999999896e-03
1.623250699999999932e-03
1.420670699999999984e-03
-8.983396299999999932e-03
-6.480763999999999969e-03
-4.690499300000000420e-03
-3.470001600000000106e-03
-2.638524900000000038e-03
-2.060722699999999880e-03
-1.648348900000000091e-03
-1.345926600000000098e-03
-1.118475500000000022e-03
7.203453999999999760e-04
8.018008000000000296e-04
8.826850999999999491e-04
9.476342000000000012e-04
9.625913000000000481e-04
8.569854999999999487e-04
4.966426999999999604e-04
-3.367926000000000253e-04
-1.893486900000000087e-03
-8.076828499999999175e-03
-6.607524099999999637e-03
-5.163860499999999888e-03
-3.984712999999999970e-03
-3.093183499999999954e-03
-2.436041999999999808e-03
-1.951600300000000052e-03
-1.590234100000000083e-03
-1.316255799999999955e-03
-1.104921899999999901e-03
5.583005000000000259e-04
5.948633999999999736e-04
6.173155999999999956e-04
6.088204999999999962e-04
5.393318000000000461e-04
3.581680999999999971e-04
-1.211409999999999977e-05
-6.686843000000000040e-04
-1.683933000000000088e-03
-3.007797100000000022e-03
-4.378180800000000018e-03
-5.389144700000000031e-03
-5.746514500000000046e-03
-5.466349199999999756e-03
-4.800050499999999887e-03
-4.018590199999999904e-03
-3.289221100000000193e-03
-2.676297399999999927e-03
-2.185530800000000037e-03
-1.799826800000000086e-03
-1.497580400000000011e-03
-1.259536500000000073e-03
4.215269000000000112e-04
4.055932000000000049e-04
3.550412999999999985e-04
2.476649999999999945e-04
5.174469999999999943e-05
-2.724558000000000080e-04
-7.624243999999999639e-04
-1.428359599999999910e-03
-2.217497299999999800e-03
-2.996440400000000091e-03
-3.590277099999999826e-03
-3.871035399999999804e-03
-3.823924199999999881e-03
-3.534546200000000023e-03
-3.122484799999999863e-03
-2.684858899999999909e-03
-2.277963500000000207e-03
-1.924758400000000074e-03
-1.628758699999999920e-03
-1.384710500000000104e-03
-1.184603499999999955e-03
2.818051000000000236e-04
2.432688999999999978e-04
1.725127999999999926e-04
5.480240000000000236e-05
-1.279085999999999971e-04
-3.939816999999999755e-04
-7.547915000000000527e-04
-1.202792199999999905e-03
-1.699658699999999963e-03
-2.175555200000000092e-03
-2.548674099999999939e-03
-2.758215699999999864e-03
-2.788739100000000182e-03
-2.669491500000000135e-03
-2.453317300000000100e-03
-2.192824400000000038e-03
-1.926770599999999946e-03
-1.677758600000000102e-03
-1.455916100000000058e-03
-1.263695299999999895e-03
1.225139999999999996e-04
4.520000000000000092e-05
-6.852760000000000437e-05
-2.281387999999999916e-04
-4.410333999999999912e-04
-7.083153999999999709e-04
-1.019587900000000057e-03
-1.349447500000000100e-03
-1.659587199999999979e-03
-1.908352799999999934e-03
-2.064220900000000164e-03
-2.115791200000000181e-03
-2.072911599999999969e-03
-1.959585800000000072e-03
-1.803916399999999946e-03
-1.630355900000000089e-03
-1.456321999999999912e-03
-1.292258300000000007e-03
-4.133370000000000035e-05
-1.447462000000000000e-04
-2.799596000000000224e-04
-4.491585000000000195e-04
-6.499629000000000040e-04
-8.732918000000000538e-04
-1.102587699999999947e-03
-1.315726900000000008e-03
-1.489820599999999978e-03
-1.607250699999999977e-03
-1.660199499999999960e-03
-1.651667899999999982e-03
-1.592945099999999942e-03
-1.499224400000000092e-03
-1.385491700000000001e-03
-1.263987299999999939e-03
-3.027293000000000020e-04
-4.375099000000000240e-04
-5.908995000000000436e-04
-7.558429999999999663e-04
-9.214423999999999922e-04
-1.074284000000000003e-03
-1.200958800000000073e-03
-1.290995399999999996e-03
-1.339089699999999926e-03
-1.345801599999999973e-03
-1.316608900000000018e-03
-1.259911000000000060e-03
-1.184867600000000026e-03
-5.354879000000000540e-04
-6.604169000000000228e-04
-7.838286999999999989e-04
-8.972350000000000247e-04
-9.923561000000000448e-04
-1.062647600000000102e-03
-1.104474800000000093e-03
-1.117559099999999991e-03
-1.104615900000000071e-03
-1.070404600000000048e-03
-6.762645000000000505e-04
-7.627763000000000512e-04
-8.360725000000000491e-04
-8.918904999999999542e-04
-9.276965000000000515e-04
1.243813700000000102e-03
1.224479199999999957e-03
1.178139799999999978e-03
1.106170600000000058e-03
1.012779799999999949e-03
1.359497500000000046e-03
1.428342599999999967e-03
1.475762299999999923e-03
1.494052700000000075e-03
1.476877199999999989e-03
1.421088999999999946e-03
1.328193099999999899e-03
1.204634800000000056e-03
1.060558600000000061e-03
9.075093000000000222e-04
7.560760999999999827e-04
1.483046900000000107e-03
1.601384499999999921e-03
1.705537499999999979e-03
1.784044299999999923e-03
1.824126799999999972e-03
1.814132800000000040e-03
1.747128799999999975e-03
1.624273999999999987e-03
1.455865599999999968e-03
1.258922999999999900e-03
1.052440300000000075e-03
8.528220999999999675e-04
6.713484000000000248e-04
5.138833000000000203e-04
1.561421400000000039e-03
1.731122000000000086e-03
1.901237700000000088e-03
2.059774099999999927e-03
2.189724399999999800e-03
2.269803899999999798e-03
2.278031499999999977e-03
2.198880099999999879e-03
2.031508899999999885e-03
1.793266900000000047e-03
1.514584100000000060e-03
1.228283900000000026e-03
9.602964999999999765e-04
7.258838999999999569e-04
5.306745999999999555e-04
3.737785000000000196e-04
1.581618599999999901e-03
1.794994700000000082e-03
2.028103600000000055e-03
2.273282900000000040e-03
2.516033999999999892e-03
2.732420000000000161e-03
2.887511000000000157e-03
2.938886500000000099e-03
2.850420399999999913e-03
2.613709000000000084e-03
2.260102099999999978e-03
1.848624500000000054e-03
1.439232599999999912e-03
1.073149600000000009e-03
7.689616999999999937e-04
5.285707999999999639e-04
3.449861999999999937e-04
2.080658000000000095e-04
1.540349600000000090e-03
1.781297999999999953e-03
2.061027400000000134e-03
2.379840099999999854e-03
2.732722999999999836e-03
3.105467900000000083e-03
3.468495499999999995e-03
3.768015200000000061e-03
3.921605100000000350e-03
3.840378299999999863e-03
3.488653799999999819e-03
2.928936000000000039e-03
2.288529100000000118e-03
1.683439500000000070e-03
1.176775199999999981e-03
7.837681000000000422e-04
4.932565999999999557e-04
2.849791000000000173e-04
1.386775000000000084e-04
3.749479999999999887e-05
1.444944000000000089e-03
1.693109799999999989e-03
1.993953100000000166e-03
2.356610800000000141e-03
2.788589699999999977e-03
3.292733899999999818e-03
3.862493800000000102e-03
4.472831499999999766e-03
5.056834599999999839e-03
5.462313300000000427e-03
5.455328300000000276e-03
4.894680999999999685e-03
3.925108299999999738e-03
2.862001700000000107e-03
1.939574500000000069e-03
1.237430799999999923e-03
7.407313000000000005e-04
4.035258999999999916e-04
1.800643999999999899e-04
3.444989999999999690e-05
-5.889740000000000296e-05
1.546788400000000032e-03
1.841321300000000032e-03
2.210357000000000034e-03
2.672932399999999962e-03
3.249639800000000186e-03
3.959437500000000283e-03
4.815987899999999745e-03
5.826217199999999923e-03
3.561701799999999855e-03
2.132994799999999875e-03
1.185318899999999965e-03
5.921157999999999933e-04
2.309451999999999924e-04
1.465959999999999937e-05
-1.125768999999999961e-04
-1.851951999999999917e-04
-2.242388000000000053e-04
1.366158799999999968e-03
1.632290599999999987e-03
1.973471499999999816e-03
2.415458799999999941e-03
2.992409499999999865e-03
3.747050000000000033e-03
4.727067100000000195e-03
5.978657899999999942e-03
2.063196000000000214e-03
8.935689999999999822e-04
2.709243000000000176e-04
-5.644600000000000133e-05
-2.251439000000000044e-04
-3.076091000000000090e-04
-3.426150999999999784e-04
-3.513761999999999918e-04
1.400357999999999985e-03
1.691606200000000081e-03
2.074607300000000116e-03
2.587224799999999787e-03
3.284948299999999877e-03
4.246838699999999980e-03
5.575224999999999625e-03
1.756808000000000002e-04
-2.948378999999999779e-04
-4.828295000000000026e-04
-5.449833999999999972e-04
-5.496356000000000202e-04
-5.281402999999999619e-04
-4.955666000000000064e-04
-4.593550999999999754e-04
1.407184099999999943e-03
1.714517299999999923e-03
2.127560900000000001e-03
2.696893899999999993e-03
3.503900099999999931e-03
4.681671499999999833e-03
6.443678100000000027e-03
-1.139633699999999944e-03
-1.045042500000000103e-03
-9.339599999999999552e-04
-8.280542000000000111e-04
-7.331866000000000251e-04
-6.502513000000000130e-04
-5.784782999999999939e-04
1.381994199999999956e-03
1.692449200000000018e-03
2.116151200000000211e-03
2.713196499999999921e-03
3.587673400000000127e-03
4.931046500000000297e-03
-2.198032999999999845e-03
-1.693886599999999904e-03
-1.359368099999999939e-03
-1.121428399999999971e-03
-9.435355999999999995e-04
-8.058302999999999950e-04
-6.965307999999999482e-04
1.322953100000000010e-03
1.621060500000000076e-03
2.030378499999999954e-03
2.612784500000000110e-03
3.479391399999999784e-03
4.846548800000000275e-03
-3.281873900000000129e-03
-2.335417199999999856e-03
-1.770192500000000030e-03
-1.400142000000000053e-03
-1.141098600000000100e-03
-9.508070000000000193e-04
-8.059621999999999793e-04
1.231982699999999977e-03
1.502409500000000077e-03
1.871618200000000091e-03
2.393506000000000106e-03
3.163653299999999880e-03
4.363788000000000389e-03
-4.153313599999999828e-03
-2.859934100000000208e-03
-2.109886200000000121e-03
-1.632672799999999999e-03
-1.307256300000000015e-03
-1.073667699999999959e-03
-8.993758999999999825e-04
-7.653649000000000216e-04
1.114836599999999896e-03
1.345410399999999928e-03
1.654324499999999939e-03
2.080276900000000134e-03
2.687448199999999902e-03
3.585258799999999860e-03
4.958944499999999589e-03
-4.623716499999999674e-03
-3.177957500000000088e-03
-2.331995199999999969e-03
-1.793162600000000042e-03
-1.426781800000000069e-03
-1.165013799999999955e-03
-9.707338999999999725e-04
-8.221615000000000260e-04
9.801188999999999648e-04
1.164009099999999955e-03
1.402365499999999989e-03
1.716857100000000053e-03
2.138440900000000006e-03
2.707857000000000146e-03
3.462416900000000151e-03
-4.614956699999999724e-03
-3.247816100000000192e-03
-2.413246500000000138e-03
-1.867884100000000028e-03
-1.491166699999999954e-03
-1.219344499999999980e-03
-1.016351499999999927e-03
8.375760999999999580e-04
9.738300999999999989e-04
1.141926199999999990e-03
1.349393400000000083e-03
1.602403000000000074e-03
1.898275500000000003e-03
2.203143700000000094e-03
-5.969819900000000214e-03
-4.210791799999999592e-03
-3.094067099999999858e-03
-2.360987000000000155e-03
-1.858601199999999941e-03
-1.500288999999999920e-03
-1.235949299999999961e-03
-1.035403600000000049e-03
7.888294999999999595e-04
8.949404000000000213e-04
1.013011700000000098e-03
1.135561999999999900e-03
1.241531900000000018e-03
1.280023400000000061e-03
1.138923999999999926e-03
-4.731938199999999838e-03
-3.609163700000000106e-03
-2.795001799999999922e-03
-2.208876800000000081e-03
-1.780846800000000047e-03
-1.461687900000000016e-03
-1.218602100000000087e-03
-1.029802000000000018e-03
6.191756000000000083e-04
6.756826000000000281e-04
7.269333999999999475e-04
7.606216000000000496e-04
7.531850999999999997e-04
6.618519999999999915e-04
4.147296000000000077e-04
-9.275830000000000262e-05
-9.679804000000000403e-04
-2.217545799999999859e-03
-4.975017099999999581e-03
-4.373171099999999950e-03
-3.654816400000000104e-03
-2.990525500000000125e-03
-2.439067400000000194e-03
-2.000970500000000089e-03
-1.657444099999999922e-03
-1.387680899999999950e-03
-1.174190999999999993e-03
-1.003511400000000036e-03
4.706795999999999853e-04
4.906523000000000525e-04
4.965170000000000304e-04
4.762495999999999743e-04
4.106860000000000046e-04
2.710899000000000013e-04
1.877760000000000128e-05
-3.879406999999999973e-04
-9.714571999999999661e-04
-1.696721900000000083e-03
-2.445726300000000165e-03
-3.050827999999999787e-03
-3.379616700000000022e-03
-3.400337700000000043e-03
-3.180653600000000070e-03
-2.831807100000000021e-03
-2.449392999999999796e-03
-2.089635099999999877e-03
-1.775514599999999943e-03
-1.510985899999999936e-03
-1.291719300000000086e-03
-1.110865400000000079e-03
3.404142999999999774e-04
3.181837999999999876e-04
2.690352999999999820e-04
1.796094999999999886e-04
3.292550000000000180e-05
-1.894259999999999987e-04
-5.010521000000000202e-04
-8.995366999999999556e-04
-1.354186299999999947e-03
-1.803839399999999926e-03
-2.173890200000000005e-03
-2.404988399999999967e-03
-2.474816500000000079e-03
-2.401753899999999834e-03
-2.230479000000000055e-03
-2.009974900000000182e-03
-1.778096399999999980e-03
-1.557571900000000089e-03
-1.359019900000000029e-03
-1.185553599999999985e-03
1.841339999999999958e-04
1.222646999999999883e-04
2.787410000000000134e-05
-1.081878000000000012e-04
-2.936273000000000203e-04
-5.308892999999999859e-04
-8.122394000000000011e-04
-1.116232200000000056e-03
-1.409273900000000039e-03
-1.653781399999999921e-03
-1.819500799999999993e-03
-1.892302499999999957e-03
-1.876801800000000046e-03
-1.792103900000000059e-03
-1.663289500000000041e-03
-1.513496800000000081e-03
-1.359811299999999935e-03
-1.212801400000000033e-03
-1.077908000000000035e-03
2.053199999999999925e-05
-6.949330000000000090e-05
-1.890077000000000098e-04
-3.405336999999999817e-04
-5.225727999999999580e-04
-7.275921000000000298e-04
-9.412188000000000151e-04
-1.143829600000000057e-03
-1.314623299999999892e-03
-1.436709200000000058e-03
-1.501153899999999953e-03
-1.508525900000000017e-03
-1.467491800000000077e-03
-1.391269099999999917e-03
-1.293703800000000053e-03
-1.186533299999999918e-03
-1.078291299999999987e-03
-1.303351999999999918e-04
-2.326778999999999902e-04
-3.558354999999999916e-04
-4.972295000000000274e-04
-6.507425000000000058e-04
-8.067090999999999975e-04
-9.530466999999999498e-04
-1.077412700000000053e-03
-1.169728299999999973e-03
-1.224213399999999957e-03
-1.240276599999999996e-03
-1.222022799999999965e-03
-1.176665199999999984e-03
-1.112544600000000021e-03
-1.037482200000000012e-03
-3.537944000000000223e-04
-4.650842999999999883e-04
-5.827010999999999562e-04
-7.000408999999999538e-04
-8.093385000000000032e-04
-9.028731999999999600e-04
-9.743154000000000398e-04
-1.019817899999999992e-03
-1.038537800000000023e-03
-1.032463699999999979e-03
-1.005661099999999959e-03
-5.230801000000000200e-04
-6.135319000000000406e-04
-6.973742999999999479e-04
-7.695729000000000328e-04
-8.259861999999999760e-04
-8.639814999999999474e-04
-8.827496999999999688e-04
1.261232799999999991e-03
1.244167700000000038e-03
1.200404699999999989e-03
1.131149099999999947e-03
1.040343100000000031e-03
1.372756599999999921e-03
1.442905800000000025e-03
1.492031499999999953e-03
1.512610400000000089e-03
1.498442599999999991e-03
1.446367000000000052e-03
1.357634300000000026e-03
1.238203000000000003e-03
1.097630899999999920e-03
9.469692999999999731e-04
7.965522999999999527e-04
1.495475900000000106e-03
1.614585700000000000e-03
1.719731099999999985e-03
1.799746000000000071e-03
1.842283300000000000e-03
1.836136500000000102e-03
1.774563899999999925e-03
1.658372900000000061e-03
1.496912900000000072e-03
1.305974600000000098e-03
1.103539699999999974e-03
9.055565999999999486e-04
7.234268000000000512e-04
5.635090000000000151e-04
1.573219999999999957e-03
1.743097400000000012e-03
1.913173300000000103e-03
2.071618800000000170e-03
2.201913399999999923e-03
2.283718399999999822e-03
2.296327500000000087e-03
2.225159100000000025e-03
2.069030700000000153e-03
1.843295200000000071e-03
1.575565400000000045e-03
1.296443900000000078e-03
1.031075399999999923e-03
7.952382000000000461e-04
5.957357000000000364e-04
4.329213000000000050e-04
1.593191899999999968e-03
1.806358600000000083e-03
2.038555300000000157e-03
2.281883599999999946e-03
2.521782800000000029e-03
2.734864400000000181e-03
2.888049399999999874e-03
2.942372700000000195e-03
2.865311100000000194e-03
2.648893700000000059e-03
2.319813500000000167e-03
1.929872000000000011e-03
1.533810200000000103e-03
1.171740500000000062e-03
8.641509000000000343e-04
6.158163999999999609e-04
4.222513999999999803e-04
2.750127000000000105e-04
1.552089300000000088e-03
1.792795800000000078e-03
2.071289799999999869e-03
2.387236100000000080e-03
2.734712299999999922e-03
3.098449000000000082e-03
3.448471199999999896e-03
3.733631600000000047e-03
3.880387900000000206e-03
3.813091800000000062e-03
3.501476700000000133e-03
2.995561500000000054e-03
2.401410200000000158e-03
1.822057499999999927e-03
1.320576900000000045e-03
9.189050999999999513e-04
6.129611000000000087e-04
3.873842999999999970e-04
2.245859000000000006e-04
1.088583000000000009e-04
1.457060100000000073e-03
1.705275200000000088e-03
2.005157899999999906e-03
2.365018200000000050e-03
2.790953200000000165e-03
3.283392600000000199e-03
3.831768100000000187e-03
4.405605499999999675e-03
4.936571399999999978e-03
5.291895599999999790e-03
5.287789700000000009e-03
4.817357399999999679e-03
3.984580300000000255e-03
3.031159900000000157e-03
2.158955800000000001e-03
1.458976199999999918e-03
9.394038999999999862e-04
5.711690999999999860e-04
3.172401000000000257e-04
1.451372000000000035e-04
3.003639999999999926e-05
1.559778200000000014e-03
1.854040300000000044e-03
2.221193599999999983e-03
2.678788100000000123e-03
3.244682599999999806e-03
3.932644600000000101e-03
4.745755299999999607e-03
5.668644799999999866e-03
3.856169000000000003e-03
2.517419700000000145e-03
1.547079800000000088e-03
8.932016999999999561e-04
4.689531999999999945e-04
1.990917000000000034e-04
2.972010000000000027e-05
-7.499140000000000168e-05
-1.382032000000000052e-04
1.379756900000000085e-03
1.646454400000000023e-03
1.987101099999999832e-03
2.426181099999999945e-03
2.995333800000000036e-03
3.732337999999999975e-03
4.675097799999999859e-03
5.848778300000000326e-03
1.512606000000000107e-03
7.345413000000000072e-04
2.817160999999999776e-04
2.111250000000000157e-05
-1.266361999999999989e-04
-2.077515000000000047e-04
-2.492729999999999967e-04
1.415394499999999894e-03
1.707425999999999952e-03
2.089864900000000178e-03
2.598728199999999870e-03
3.285448800000000114e-03
4.220193599999999892e-03
5.486341999999999955e-03
4.112882999999999904e-04
-1.111330000000000081e-05
-2.229843999999999923e-04
-3.243138999999999918e-04
-3.664396000000000211e-04
-3.766870999999999870e-04
-3.699845000000000217e-04
1.424032900000000079e-03
1.732670400000000093e-03
2.145641599999999986e-03
2.711163899999999814e-03
3.504695600000000150e-03
4.643930000000000106e-03
6.301324799999999914e-03
-1.135032999999999946e-04
-4.137284999999999878e-04
-5.281862000000000015e-04
-5.565620999999999546e-04
-5.448268000000000468e-04
-5.152991000000000212e-04
-4.790312999999999819e-04
1.401049799999999970e-03
1.713740799999999894e-03
2.138700299999999992e-03
2.733610899999999906e-03
3.595590699999999876e-03
4.894446900000000086e-03
-8.243368000000000050e-04
-9.018163999999999738e-04
-8.744735999999999482e-04
-8.084420000000000365e-04
-7.320792000000000228e-04
-6.573205999999999624e-04
-5.887486000000000368e-04
1.344532299999999948e-03
1.646234099999999926e-03
2.059136599999999810e-03
2.643559000000000186e-03
3.505276700000000117e-03
4.841346100000000312e-03
-1.423394599999999906e-03
-1.228732200000000026e-03
-1.058301499999999944e-03
-9.138399999999999648e-04
-7.931019999999999563e-04
-6.925497000000000077e-04
-6.086435000000000282e-04
1.256202500000000053e-03
1.531865799999999932e-03
1.907733300000000101e-03
2.437882699999999962e-03
3.217239299999999878e-03
4.422875700000000396e-03
-1.913677500000000083e-03
-1.550948300000000012e-03
-1.281230699999999978e-03
-1.074372899999999961e-03
-9.124902999999999530e-04
-7.837261999999999571e-04
-6.798378999999999577e-04
1.141518100000000037e-03
1.378964500000000055e-03
1.697684799999999924e-03
2.138487300000000216e-03
2.770227000000000106e-03
3.714631300000000025e-03
5.197276300000000342e-03
-2.298900300000000091e-03
-1.799742599999999996e-03
-1.453297899999999969e-03
-1.199293199999999998e-03
-1.006498200000000053e-03
-8.564583999999999652e-04
-7.373692999999999741e-04
1.008768900000000038e-03
1.200836299999999933e-03
1.451441699999999951e-03
1.785648500000000093e-03
2.242180600000000072e-03
2.881906400000000187e-03
3.801725199999999791e-03
-2.503098200000000110e-03
-1.940812899999999966e-03
-1.556805899999999954e-03
-1.278523499999999896e-03
-1.068954700000000020e-03
-9.067558999999999559e-04
-7.785465999999999567e-04
8.674611999999999948e-04
1.012641500000000059e-03
1.194245800000000085e-03
1.423506099999999981e-03
1.714526999999999978e-03
2.082948700000000070e-03
2.539848200000000000e-03
-3.310571699999999805e-03
-2.497722500000000134e-03
-1.962470599999999784e-03
-1.586055399999999980e-03
-1.308758900000000017e-03
-1.097687699999999990e-03
-9.330786999999999675e-04
7.265919999999999714e-04
8.281764999999999743e-04
9.478438000000000271e-04
1.087235499999999935e-03
1.245246599999999971e-03
1.413622200000000080e-03
1.567150599999999998e-03
1.641511200000000080e-03
-3.781399600000000163e-03
-2.941515999999999922e-03
-2.330003599999999966e-03
-1.883250400000000078e-03
-1.549450300000000062e-03
-1.294097400000000049e-03
-1.094743299999999904e-03
-9.364335000000000324e-04
6.577326999999999783e-04
7.269241999999999544e-04
7.973884999999999567e-04
8.612771999999999876e-04
9.028388999999999729e-04
8.924096000000000285e-04
7.775924000000000464e-04
4.754556999999999750e-04
-1.122380999999999986e-04
-2.975256999999999815e-03
-2.497449399999999813e-03
-2.081185000000000153e-03
-1.739902999999999892e-03
-1.465125299999999950e-03
-1.244141299999999926e-03
-1.065469199999999946e-03
-9.199039000000000001e-04
5.074149999999999928e-04
5.386661999999999961e-04
5.609246999999999931e-04
5.650305999999999905e-04
5.362608999999999735e-04
4.523074999999999990e-04
2.825622999999999763e-04
-7.176099999999999784e-06
-4.373299999999999887e-04
-9.840647000000000109e-04
-1.565705900000000008e-03
-2.610443699999999857e-03
-2.556943999999999797e-03
-2.354456200000000065e-03
-2.087869500000000180e-03
-1.816444499999999912e-03
-1.568605899999999916e-03
-1.353369600000000087e-03
-1.170630800000000034e-03
-1.016882999999999893e-03
3.843087000000000022e-04
3.755696999999999898e-04
3.454773999999999866e-04
2.830889999999999860e-04
1.744868999999999912e-04
4.517100000000000340e-06
-2.382197000000000123e-04
-5.524718999999999984e-04
-9.155953999999999786e-04
-1.284870999999999930e-03
-1.611780499999999894e-03
-1.854325100000000018e-03
-1.982326300000000069e-03
-1.988971600000000173e-03
-1.897213100000000058e-03
-1.745849100000000089e-03
-1.570435999999999924e-03
-1.394645400000000049e-03
-1.230963500000000019e-03
-1.084447000000000102e-03
-9.560530000000000026e-04
2.343971999999999993e-04
1.871525000000000077e-04
1.124294000000000047e-04
2.466200000000000206e-06
-1.492789999999999916e-04
-3.450068000000000253e-04
-5.787605999999999827e-04
-8.341909000000000433e-04
-1.086638700000000035e-03
-1.309034099999999970e-03
-1.477538700000000050e-03
-1.575751999999999925e-03
-1.599289500000000003e-03
-1.557658300000000062e-03
-1.469647699999999946e-03
-1.355562700000000065e-03
-1.231793699999999929e-03
-1.109228000000000080e-03
-9.940158000000000587e-04
7.518759999999999821e-05
-5.790999999999999908e-07
-1.021136999999999978e-04
-2.316478000000000016e-04
-3.880410999999999735e-04
-5.652403000000000505e-04
-7.518600000000000283e-04
-9.326262999999999784e-04
-1.091252800000000077e-03
-1.213487100000000107e-03
-1.289718200000000096e-03
-1.317053899999999977e-03
-1.299873700000000023e-03
-1.247934600000000010e-03
-1.172981399999999943e-03
-1.085779800000000097e-03
-9.946052000000000365e-04
-7.409810000000000127e-05
-1.639483999999999972e-04
-2.725116000000000083e-04
-3.976569999999999909e-04
-5.343068999999999987e-04
-6.745053000000000420e-04
-8.083526000000000166e-04
-9.255870999999999934e-04
-1.017326399999999957e-03
-1.077594299999999963e-03
-1.104367499999999933e-03
-1.099762100000000039e-03
-1.069138600000000064e-03
-1.019485899999999969e-03
-9.578151000000000243e-04
-2.890871000000000261e-04
-3.898047999999999986e-04
-4.968271999999999923e-04
-6.045319999999999644e-04
-7.062951999999999729e-04
-7.954225000000000097e-04
-8.661737999999999773e-04
-9.146558999999999853e-04
-9.393925000000000018e-04
-9.414065000000000540e-04
-9.237644000000000150e-04
-8.907455000000000320e-04
-4.581545999999999926e-04
-5.424741999999999975e-04
-6.215583999999999476e-04
-6.909107000000000052e-04
-7.467008000000000456e-04
-7.862957999999999536e-04
-8.085895999999999535e-04
-8.140518000000000450e-04
1.233249700000000086e-03
1.192243800000000005e-03
1.126907400000000045e-03
1.422075199999999926e-03
1.469204499999999950e-03
1.489207200000000056e-03
1.476466899999999936e-03
1.428145499999999976e-03
1.345347399999999912e-03
1.233364200000000100e-03
1.100740100000000042e-03
9.574858999999999801e-04
8.131564000000000196e-04
1.471945500000000065e-03
1.585365600000000026e-03
1.684832000000000040e-03
1.760045200000000080e-03
1.799872899999999977e-03
1.794432899999999975e-03
1.737905799999999931e-03
1.631040899999999924e-03
1.481926900000000037e-03
1.304290999999999957e-03
1.114040099999999986e-03
9.257029000000000169e-04
7.501371000000000384e-04
5.938649000000000271e-04
1.545928100000000050e-03
1.707062700000000098e-03
1.866913499999999946e-03
2.014245999999999918e-03
2.133896699999999948e-03
2.207858899999999916e-03
2.218462799999999877e-03
2.153720500000000197e-03
2.012911300000000143e-03
1.808843299999999968e-03
1.564579699999999992e-03
1.306330600000000066e-03
1.056620700000000107e-03
8.306344999999999701e-04
6.359437999999999810e-04
4.742155000000000068e-04
1.564729699999999968e-03
1.766752199999999974e-03
1.984533299999999799e-03
2.209863299999999947e-03
2.428508499999999966e-03
2.618819799999999934e-03
2.751919399999999943e-03
2.795835899999999860e-03
2.725495200000000156e-03
2.535628500000000011e-03
2.247352299999999872e-03
1.901429500000000007e-03
1.542689400000000002e-03
1.206519099999999898e-03
9.135016999999999616e-04
6.709666999999999671e-04
4.774382999999999991e-04
3.269591000000000186e-04
1.525234600000000083e-03
1.753669499999999971e-03
2.015128100000000179e-03
2.307823499999999816e-03
2.624320500000000035e-03
2.948290499999999849e-03
3.250635600000000187e-03
3.486423700000000018e-03
3.597791199999999991e-03
3.531354100000000037e-03
3.268901500000000009e-03
2.846876099999999955e-03
2.341300399999999855e-03
1.831469399999999985e-03
1.373028199999999947e-03
9.918605999999999950e-04
6.913620999999999786e-04
4.627656000000000065e-04
2.929831999999999836e-04
1.689596999999999876e-04
1.434089300000000039e-03
1.670376799999999948e-03
1.952790100000000072e-03
2.287238999999999939e-03
2.676615600000000015e-03
3.117242799999999942e-03
3.593564100000000081e-03
4.070438299999999676e-03
4.482497499999999954e-03
4.727514700000000174e-03
4.690925700000000108e-03
4.319330300000000233e-03
3.678801499999999943e-03
2.917581600000000025e-03
2.178671100000000114e-03
1.548232799999999919e-03
1.053783499999999930e-03
6.862263999999999864e-04
4.219512000000000132e-04
2.358945000000000096e-04
1.067997000000000000e-04
1.831350000000000008e-05
1.531658599999999966e-03
1.810120199999999983e-03
2.153107300000000127e-03
2.573810100000000194e-03
3.083806399999999837e-03
3.688123599999999953e-03
4.377284199999999584e-03
5.115358999999999878e-03
5.817651499999999809e-03
3.670776199999999795e-03
2.585658199999999862e-03
1.716101499999999995e-03
1.081163000000000003e-03
6.414664999999999950e-04
3.457015000000000240e-04
1.501786000000000126e-04
2.264899999999999948e-05
-5.930619999999999810e-05
1.613351000000000065e-03
1.933820400000000076e-03
2.340597099999999851e-03
2.857792999999999965e-03
3.511584400000000022e-03
4.323562100000000012e-03
5.297976999999999721e-03
1.852313699999999985e-03
1.050422899999999948e-03
5.415447000000000533e-04
2.254155000000000037e-04
3.173250000000000154e-05
-8.500609999999999915e-05
-1.535115000000000091e-04
1.393079699999999997e-03
1.670201000000000064e-03
2.028039200000000212e-03
2.495595599999999963e-03
3.111893100000000158e-03
3.925918100000000063e-03
4.989454100000000406e-03
9.363140999999999738e-04
3.735489999999999839e-04
5.602999999999999718e-05
-1.204101999999999945e-04
-2.152370999999999928e-04
-2.626514000000000040e-04
-2.824991000000000004e-04
1.400948300000000053e-03
1.693070700000000100e-03
2.077797299999999819e-03
2.593652399999999813e-03
3.297154799999999896e-03
4.268716199999999725e-03
5.611918199999999662e-03
7.203571999999999883e-04
1.331915999999999938e-04
-1.608989000000000122e-04
-3.025463999999999736e-04
-3.639218999999999961e-04
-3.829339999999999762e-04
-3.798165999999999847e-04
1.378754600000000035e-03
1.674401000000000058e-03
2.069355699999999958e-03
2.609464599999999912e-03
3.366696699999999990e-03
4.454338700000000199e-03
6.044096599999999875e-03
-1.714306999999999984e-04
-4.160190999999999824e-04
-5.058191999999999766e-04
-5.235934999999999938e-04
-5.084523000000000514e-04
-4.792056000000000050e-04
-4.449936999999999946e-04
1.324798299999999963e-03
1.610359299999999895e-03
1.994343100000000018e-03
2.524786599999999989e-03
3.280233000000000020e-03
4.392288299999999937e-03
6.081651500000000155e-03
-5.275170000000000249e-04
-6.943363000000000356e-04
-7.169929999999999706e-04
-6.839752999999999632e-04
-6.316383000000000067e-04
-5.751957000000000467e-04
-5.209083999999999676e-04
1.240701600000000075e-03
1.502589699999999943e-03
1.853689400000000081e-03
2.337608599999999905e-03
3.026359900000000040e-03
4.043243299999999853e-03
5.605615399999999693e-03
-9.273566000000000448e-04
-9.762589000000000119e-04
-9.193340999999999839e-04
-8.329528999999999579e-04
-7.440854000000000435e-04
-6.619815000000000248e-04
-5.892093000000000374e-04
1.131485999999999907e-03
1.358607099999999991e-03
1.658964100000000002e-03
2.066288700000000131e-03
2.635103099999999785e-03
3.457547599999999822e-03
-1.335836900000000058e-03
-1.231850800000000102e-03
-1.093114500000000018e-03
-9.579493000000000339e-04
-8.376771000000000304e-04
-7.341993000000000434e-04
-6.462593999999999674e-04
1.004773499999999991e-03
1.190399400000000107e-03
1.429816499999999940e-03
1.744593800000000068e-03
2.167557999999999985e-03
2.751013599999999840e-03
3.587069500000000192e-03
-1.656328600000000085e-03
-1.420848800000000002e-03
-1.218669599999999903e-03
-1.048179800000000050e-03
-9.059752000000000126e-04
-7.877561999999999846e-04
-6.893297999999999743e-04
8.693584000000000077e-04
1.011751200000000038e-03
1.188678600000000075e-03
1.410575500000000020e-03
1.691199700000000023e-03
2.048795899999999830e-03
2.509035299999999840e-03
-2.190664599999999924e-03
-1.803822399999999984e-03
-1.513615500000000010e-03
-1.283670200000000062e-03
-1.097597600000000057e-03
-9.455712999999999705e-04
-8.205153999999999876e-04
-7.169757999999999600e-04
7.336582999999999820e-04
8.354179999999999896e-04
9.553915000000000497e-04
1.095934399999999934e-03
1.258104500000000077e-03
1.439661100000000100e-03
1.631148900000000106e-03
1.806903500000000065e-03
-2.117639799999999992e-03
-1.784056100000000044e-03
-1.511265300000000020e-03
-1.288908500000000021e-03
-1.106772000000000008e-03
-9.567786999999999473e-04
-8.325879999999999913e-04
6.711552999999999877e-04
7.438933000000000221e-04
8.204679999999999786e-04
8.957289000000000223e-04
9.595728999999999891e-04
9.938450999999999622e-04
9.684080999999999549e-04
8.399065999999999520e-04
5.720241000000000041e-04
-2.114358599999999980e-03
-1.901347999999999970e-03
-1.661743200000000099e-03
-1.439799600000000058e-03
-1.246591000000000019e-03
-1.082120800000000056e-03
-9.432131999999999973e-04
-8.260917999999999907e-04
5.249913999999999623e-04
5.615114000000000260e-04
5.920870999999999643e-04
6.098803999999999554e-04
6.043017999999999610e-04
5.601410000000000026e-04
4.581987000000000147e-04
2.806144000000000216e-04
2.540699999999999916e-05
-2.763303000000000265e-04
-1.787670899999999974e-03
-1.778709399999999982e-03
-1.660480300000000088e-03
-1.498533100000000061e-03
-1.330547600000000054e-03
-1.173419800000000037e-03
-1.033084999999999993e-03
-9.104811000000000197e-04
4.101185000000000139e-04
4.101152000000000269e-04
3.933106000000000015e-04
3.514112999999999807e-04
2.744256999999999838e-04
1.524770000000000107e-04
-1.997960000000000095e-05
-2.380430999999999910e-04
-4.838776000000000036e-04
-7.365671999999999974e-04
-9.861538999999999028e-04
-1.221855599999999977e-03
-1.408459799999999982e-03
-1.506308600000000027e-03
-1.508451299999999948e-03
-1.439266499999999980e-03
-1.330732899999999925e-03
-1.207527899999999996e-03
-1.084499399999999973e-03
-9.691752000000000309e-04
-8.646736999999999609e-04
2.692013999999999735e-04
2.336271000000000116e-04
1.756324000000000025e-04
8.944650000000000495e-05
-2.928099999999999968e-05
-1.810934000000000100e-04
-3.604324000000000221e-04
-5.556486000000000454e-04
-7.526755000000000207e-04
-9.386932999999999866e-04
-1.100185100000000086e-03
-1.220106699999999903e-03
-1.284027700000000107e-03
-1.289698300000000032e-03
-1.247748599999999900e-03
-1.174510199999999989e-03
-1.085154399999999986e-03
-9.907463999999999507e-04
-8.981907000000000129e-04
1.180937000000000040e-04
5.542870000000000007e-05
-2.868060000000000116e-05
-1.356880999999999994e-04
-2.642747000000000195e-04
-4.094883999999999807e-04
-5.630154999999999969e-04
-7.147049000000000154e-04
-8.541360000000000228e-04
-9.710835000000000343e-04
-1.056058099999999944e-03
-1.102691399999999964e-03
-1.110495200000000040e-03
-1.085023199999999915e-03
-1.035287200000000038e-03
-9.706594000000000463e-04
-8.989296000000000135e-04
-2.559859999999999916e-05
-1.027994999999999972e-04
-1.959228999999999940e-04
-3.030873000000000009e-04
-4.201712000000000133e-04
-5.410560999999999713e-04
-6.584117000000000441e-04
-7.646343999999999580e-04
-8.526249000000000501e-04
-9.166080999999999968e-04
-9.532314999999999755e-04
-9.624650999999999476e-04
-9.475179999999999497e-04
-9.137083999999999744e-04
-8.669745000000000186e-04
-2.276980000000000009e-04
-3.165077000000000190e-04
-4.111025999999999830e-04
-5.069442000000000175e-04
-5.987587000000000378e-04
-6.811579000000000331e-04
-7.492723999999999652e-04
-7.993688000000000096e-04
-8.294208000000000396e-04
-8.394456999999999917e-04
-8.313847999999999551e-04
-8.085289999999999968e-04
-3.155014000000000147e-04
-3.923441000000000168e-04
-4.690556999999999821e-04
-5.418334999999999818e-04
-6.068678999999999567e-04
-6.607873999999999476e-04
-7.010709000000000168e-04
-7.263699000000000197e-04
-7.366561999999999893e-04
1.370091599999999918e-03
1.412269500000000021e-03
1.429415000000000069e-03
1.416788599999999976e-03
1.372091900000000069e-03
1.296366100000000002e-03
1.194153099999999915e-03
1.072745599999999936e-03
9.407706999999999745e-04
1.416764600000000032e-03
1.519383000000000018e-03
1.608052300000000108e-03
1.673763900000000077e-03
1.707108099999999967e-03
1.700033299999999985e-03
1.648036199999999927e-03
1.551988000000000022e-03
1.418619799999999926e-03
1.259219800000000063e-03
1.087041900000000052e-03
9.145549999999999470e-04
7.515172000000000085e-04
6.042353999999999781e-04
1.484414299999999975e-03
1.629817599999999972e-03
1.771785500000000067e-03
1.900110200000000062e-03
2.001654700000000085e-03
2.061579500000000186e-03
2.066089699999999925e-03
2.006448300000000188e-03
1.882750600000000080e-03
1.705224800000000032e-03
1.491875599999999916e-03
1.263571999999999916e-03
1.039079199999999896e-03
8.319946999999999846e-04
6.500234999999999607e-04
4.958893000000000025e-04
1.501228199999999919e-03
1.683522999999999921e-03
1.876756999999999948e-03
2.072654499999999900e-03
2.257955399999999994e-03
2.413858400000000199e-03
2.517082500000000084e-03
2.543898800000000005e-03
2.477456399999999979e-03
2.315679199999999809e-03
2.074508599999999852e-03
1.783453900000000038e-03
1.476044300000000026e-03
1.180782600000000000e-03
9.163860000000000451e-04
6.915801000000000500e-04
5.075502000000000182e-04
3.609939000000000268e-04
1.464458099999999896e-03
1.671086299999999898e-03
1.903533399999999924e-03
2.158391200000000024e-03
2.426988000000000149e-03
2.693013199999999812e-03
2.930374600000000117e-03
3.103045999999999929e-03
3.170337300000000171e-03
3.100181200000000099e-03
2.885628700000000130e-03
2.552128900000000169e-03
2.148697199999999828e-03
1.729636600000000095e-03
1.338377100000000004e-03
1.000187800000000094e-03
7.235705999999999735e-04
5.059239000000000097e-04
3.392385999999999948e-04
2.139854000000000062e-04
1.380027700000000055e-03
1.594754000000000093e-03
1.846974699999999947e-03
2.139497499999999924e-03
2.471546800000000085e-03
2.835646299999999929e-03
3.213312199999999921e-03
3.569843999999999969e-03
3.850453199999999843e-03
3.985758300000000372e-03
3.916897899999999787e-03
3.629623399999999927e-03
3.165430299999999995e-03
2.602869299999999945e-03
2.028115000000000039e-03
1.507911200000000085e-03
1.076239299999999987e-03
7.387446000000000420e-04
4.850888000000000031e-04
2.993429000000000033e-04
1.657274999999999883e-04
1.467531300000000103e-03
1.717967200000000000e-03
2.020113599999999801e-03
2.381533899999999787e-03
2.806519200000000009e-03
3.291588800000000078e-03
3.818504800000000182e-03
4.343749499999999784e-03
4.784336999999999618e-03
4.558371500000000034e-03
3.931819100000000060e-03
3.161998599999999836e-03
2.375573800000000020e-03
1.683365499999999989e-03
1.135027000000000041e-03
7.284207000000000442e-04
4.386540999999999986e-04
2.371738000000000025e-04
9.942870000000000570e-05
6.575700000000000417e-06
1.539291900000000013e-03
1.824445100000000094e-03
2.177590100000000115e-03
2.613190500000000215e-03
3.143911000000000101e-03
3.774726899999999823e-03
4.493187899999999922e-03
1.860495399999999907e-03
1.166494799999999964e-03
6.839538000000000041e-04
3.609587999999999837e-04
1.496432999999999975e-04
1.376860000000000062e-05
-7.203040000000000072e-05
1.337742000000000054e-03
1.587431199999999893e-03
1.902493400000000029e-03
2.302315100000000125e-03
2.810238000000000059e-03
3.451040600000000041e-03
4.244224300000000102e-03
2.042077299999999884e-03
1.163374999999999913e-03
5.991762999999999777e-04
2.486777000000000128e-04
3.573410000000000063e-05
-9.085660000000000014e-05
-1.638340999999999973e-04
-2.036678999999999953e-04
1.342684000000000022e-03
1.604185699999999964e-03
1.939660900000000042e-03
2.374377100000000032e-03
2.941248500000000210e-03
3.679573700000000024e-03
4.628018900000000109e-03
1.126290199999999912e-03
4.727625999999999855e-04
1.019751999999999990e-04
-1.027975999999999998e-04
-2.118994000000000129e-04
-2.661558999999999973e-04
-2.890198999999999871e-04
1.320043099999999945e-03
1.583404199999999913e-03
1.925144400000000080e-03
2.374695999999999925e-03
2.972522200000000080e-03
3.770477400000000080e-03
4.823292199999999925e-03
3.061494999999999798e-04
-7.635820000000000357e-05
-2.614927999999999979e-04
-3.445944999999999954e-04
-3.747194000000000024e-04
-3.773870000000000241e-04
-3.661038999999999830e-04
1.268550000000000016e-03
1.522259800000000038e-03
1.852976099999999919e-03
2.290969199999999973e-03
2.879063900000000155e-03
3.674043000000000100e-03
4.735699700000000137e-03
8.954720000000000214e-05
-2.837577000000000090e-04
-4.336394999999999941e-04
-4.821388999999999926e-04
-4.838636999999999799e-04
-4.643822000000000141e-04
-4.360535999999999818e-04
1.189817500000000085e-03
1.422549200000000017e-03
1.724780100000000010e-03
2.123619199999999835e-03
2.657565299999999856e-03
3.378253800000000171e-03
4.341619399999999823e-03
-2.070782000000000124e-04
-5.161755999999999983e-04
-6.095006000000000035e-04
-6.158153000000000194e-04
-5.869391000000000061e-04
-5.451583000000000080e-04
-5.003537999999999866e-04
1.088357199999999934e-03
1.290893999999999896e-03
1.550495800000000098e-03
1.887896600000000006e-03
2.331857899999999987e-03
2.920716500000000021e-03
3.700531600000000164e-03
-5.828164000000000261e-04
-7.555300999999999510e-04
-7.742171999999999639e-04
-7.352975000000000526e-04
-6.769637999999999914e-04
-6.149629999999999463e-04
-5.557150999999999541e-04
9.708914000000000129e-04
1.137573200000000081e-03
1.346329700000000081e-03
1.610147900000000014e-03
1.945822299999999932e-03
2.374329499999999846e-03
2.921447399999999896e-03
-9.454231999999999914e-04
-9.631693999999999672e-04
-9.088250000000000408e-04
-8.301577000000000088e-04
-7.477032999999999466e-04
-6.698287000000000468e-04
-5.994891999999999929e-04
8.451637000000000342e-04
9.743873999999999808e-04
1.130774599999999960e-03
1.320166800000000060e-03
1.548609299999999939e-03
1.821210599999999961e-03
2.140417199999999995e-03
-1.184737699999999965e-03
-1.100875199999999925e-03
-9.975534999999999351e-04
-8.928219000000000042e-04
-7.950232999999999476e-04
-7.072552000000000179e-04
-6.300420000000000369e-04
7.186437999999999854e-04
8.123870999999999523e-04
9.205036999999999464e-04
1.043588800000000080e-03
1.180386700000000087e-03
1.326113399999999994e-03
1.470041700000000078e-03
1.592299900000000018e-03
-1.363983499999999989e-03
-1.275189799999999979e-03
-1.157008900000000041e-03
-1.035534600000000052e-03
-9.211583999999999658e-04
-8.178708000000000028e-04
-7.266288999999999778e-04
6.602275999999999805e-04
7.276684999999999534e-04
7.974158999999999761e-04
8.646816000000000528e-04
9.211405999999999674e-04
9.539350000000000477e-04
9.465413999999999902e-04
8.878035000000000050e-04
8.076733999999999910e-04
-1.323623799999999956e-03
-1.340578000000000039e-03
-1.259143899999999984e-03
-1.146403500000000002e-03
-1.029332800000000046e-03
-9.186393999999999853e-04
-8.182674000000000458e-04
-7.291748000000000240e-04
5.234862999999999756e-04
5.591263999999999870e-04
5.894615999999999875e-04
6.089109999999999575e-04
6.095192999999999835e-04
5.812709000000000322e-04
5.145555000000000441e-04
4.074675000000000150e-04
2.792932000000000249e-04
1.752682000000000035e-04
-1.097060400000000099e-03
-1.241588600000000054e-03
-1.250433900000000103e-03
-1.186977700000000106e-03
-1.093205899999999961e-03
-9.913920000000000111e-04
-8.922169000000000193e-04
-8.003544000000000023e-04
4.171676000000000138e-04
4.204565999999999751e-04
4.097514999999999816e-04
3.789247999999999944e-04
3.214671000000000108e-04
2.326212999999999881e-04
1.132076000000000035e-04
-2.667989999999999845e-05
-1.710636999999999932e-04
-3.156753999999999897e-04
-4.822491000000000039e-04
-6.887001000000000234e-04
-9.025017000000000195e-04
-1.062875999999999925e-03
-1.138881299999999893e-03
-1.139982899999999978e-03
-1.091920799999999969e-03
-1.018096999999999926e-03
-9.342881999999999836e-04
-8.496785999999999662e-04
-7.690926999999999963e-04
2.869289000000000236e-04
2.588604999999999791e-04
2.125153000000000014e-04
1.440973000000000069e-04
5.160980000000000179e-05
-6.338879999999999862e-05
-1.949195000000000029e-04
-3.347231000000000208e-04
-4.774582000000000088e-04
-6.226874000000000514e-04
-7.669963000000000345e-04
-8.952304999999999595e-04
-9.866831999999999860e-04
-1.029823600000000011e-03
-1.027567199999999915e-03
-9.915582999999999082e-04
-9.348193000000000301e-04
-8.678600000000000290e-04
-7.978592000000000063e-04
1.467360000000000127e-04
9.451189999999999884e-05
2.492590000000000135e-05
-6.253200000000000371e-05
-1.660850000000000065e-04
-2.814714999999999969e-04
-4.028977999999999900e-04
-5.246972000000000354e-04
-6.418481000000000186e-04
-7.483048999999999647e-04
-8.356710999999999957e-04
-8.954514000000000440e-04
-9.233006999999999673e-04
-9.209113999999999798e-04
-8.943949000000000517e-04
-8.513624999999999925e-04
-7.987603999999999494e-04
1.204040000000000080e-05
-5.383339999999999859e-05
-1.327133999999999888e-04
-2.228119999999999938e-04
-3.207706999999999746e-04
-4.220917000000000028e-04
-5.218158999999999992e-04
-6.149172000000000492e-04
-6.962386999999999786e-04
-7.606279000000000295e-04
-8.039408000000000058e-04
-8.244276999999999942e-04
-8.233328000000000261e-04
-8.042719000000000474e-04
-7.719607000000000508e-04
-1.741523000000000029e-04
-2.511885999999999958e-04
-3.331699000000000032e-04
-4.165659000000000159e-04
-4.974062000000000015e-04
-5.716277999999999550e-04
-6.353453000000000442e-04
-6.851884000000000143e-04
-7.188163999999999708e-04
-7.354309000000000063e-04
-7.359415000000000011e-04
-7.226475000000000433e-04
-2.622325999999999802e-04
-3.305316999999999782e-04
-3.990331000000000065e-04
-4.646798999999999960e-04
-5.243857999999999896e-04
-5.753127999999999714e-04
-6.151576999999999870e-04
-6.424427000000000349e-04
-6.567310000000000248e-04
1.293768800000000101e-03
1.329126199999999987e-03
1.342004799999999996e-03
1.328658900000000012e-03
1.287407200000000029e-03
1.219267999999999914e-03
1.128035099999999923e-03
1.019698299999999974e-03
9.013816999999999489e-04
1.336843199999999954e-03
1.425440499999999994e-03
1.500294000000000107e-03
1.553915699999999919e-03
1.578814300000000101e-03
1.568887500000000100e-03
1.521002600000000019e-03
1.436197499999999905e-03
1.319912899999999998e-03
1.181031199999999989e-03
1.030061299999999970e-03
8.771611999999999595e-04
7.306441999999999798e-04
1.396433699999999898e-03
1.521793600000000005e-03
1.641543700000000104e-03
1.746851900000000093e-03
1.826974999999999997e-03
1.870479499999999932e-03
1.867432800000000089e-03
1.812164000000000006e-03
1.705527500000000038e-03
1.555453299999999929e-03
1.375312000000000062e-03
1.180779899999999947e-03
9.865412999999999526e-04
8.039768999999999562e-04
6.402826999999999607e-04
4.987796999999999977e-04
1.410691300000000044e-03
1.567962999999999909e-03
1.730967699999999944e-03
1.891801600000000017e-03
2.038835499999999863e-03
2.156827599999999821e-03
2.228417099999999932e-03
2.237538700000000092e-03
2.174261199999999884e-03
2.038966000000000129e-03
1.843380200000000000e-03
1.607714000000000105e-03
1.355368499999999978e-03
1.107564300000000003e-03
8.797921000000000430e-04
6.807887000000000096e-04
5.134914999999999879e-04
3.768609000000000021e-04
1.377361500000000077e-03
1.556212900000000050e-03
1.752832900000000048e-03
1.962567499999999868e-03
2.176323999999999880e-03
2.379203800000000146e-03
2.549885500000000169e-03
2.662178500000000024e-03
2.690401900000000124e-03
2.618102299999999858e-03
2.445387900000000128e-03
2.189818599999999831e-03
1.881194600000000083e-03
1.553659900000000076e-03
1.237640900000000011e-03
9.541887999999999672e-04
7.136084000000000437e-04
5.175909999999999712e-04
3.625645999999999947e-04
2.425802999999999922e-04
1.488509500000000010e-03
1.703084699999999913e-03
1.945130300000000095e-03
2.210838499999999863e-03
2.490431699999999787e-03
2.765451400000000070e-03
3.006470499999999973e-03
3.173884100000000114e-03
3.226842800000000004e-03
3.140907899999999947e-03
2.920063699999999891e-03
2.591028500000000165e-03
2.193034200000000024e-03
1.772183500000000045e-03
1.371865699999999912e-03
1.021541900000000032e-03
7.334111000000000363e-04
5.066750000000000507e-04
3.336832999999999770e-04
2.045442000000000126e-04
1.375784799999999961e-03
1.590739899999999958e-03
1.842990999999999987e-03
2.134773999999999873e-03
2.464154000000000084e-03
2.821584800000000084e-03
3.185218000000000077e-03
3.515138399999999819e-03
3.749898700000000012e-03
3.821036099999999911e-03
3.699291999999999858e-03
3.417383700000000205e-03
3.018120500000000175e-03
2.530565900000000118e-03
2.004121299999999870e-03
1.503662599999999998e-03
1.075128999999999972e-03
7.342877000000000475e-04
4.762235000000000188e-04
2.871325999999999891e-04
1.516687000000000070e-04
5.624449999999999995e-05
1.434560199999999940e-03
1.675661800000000003e-03
1.964550199999999872e-03
2.306658599999999830e-03
2.702998399999999996e-03
3.145431499999999918e-03
3.609894700000000015e-03
4.045528900000000365e-03
2.243118799999999947e-03
1.627508499999999903e-03
1.108912899999999965e-03
7.109707999999999523e-04
4.224548000000000062e-04
2.206413999999999912e-04
