1.804620899999999925e-03
1.818112499999999937e-03
1.806669600000000101e-03
1.825920599999999961e-03
1.839611899999999984e-03
1.827936999999999965e-03
1.791581100000000024e-03
1.728171500000000088e-03
1.789488699999999908e-03
1.827932499999999948e-03
1.841570399999999975e-03
1.829764399999999919e-03
1.793176100000000092e-03
1.733720299999999895e-03
1.711260800000000094e-03
1.771919399999999974e-03
1.809839400000000072e-03
1.823174099999999923e-03
1.811327599999999934e-03
1.774943499999999917e-03
1.715871699999999911e-03
1.675616300000000100e-03
1.734745499999999947e-03
1.771590400000000107e-03
1.784394699999999933e-03
1.772607600000000033e-03
1.736862999999999949e-03
1.678950800000000073e-03
1.713844300000000060e-03
1.751695499999999898e-03
1.765096899999999943e-03
1.753253699999999995e-03
1.744626300000000092e-03
1.810039199999999900e-03
1.851409899999999914e-03
1.866082100000000061e-03
1.853177899999999996e-03
1.813708600000000018e-03
1.750380599999999936e-03
1.732155900000000069e-03
1.823807200000000057e-03
1.893998600000000023e-03
1.938402199999999945e-03
1.954192200000000063e-03
1.940434599999999983e-03
1.898189999999999903e-03
1.830318399999999969e-03
1.741056499999999894e-03
1.791490900000000056e-03
1.888185599999999895e-03
1.962153500000000071e-03
2.008918699999999967e-03
2.025594700000000158e-03
2.011228299999999990e-03
1.966878400000000165e-03
1.895441199999999948e-03
1.801278099999999941e-03
1.716136700000000072e-03
1.834570599999999982e-03
1.934906799999999965e-03
2.011488000000000078e-03
2.059827900000000059e-03
2.077091200000000162e-03
2.062346400000000194e-03
2.016604400000000102e-03
1.942686099999999926e-03
1.844944500000000008e-03
1.728840599999999922e-03
1.604104099999999894e-03
1.737837199999999957e-03
1.859125199999999952e-03
1.961601500000000053e-03
2.039577500000000054e-03
2.088667299999999883e-03
2.106173299999999915e-03
2.091222599999999990e-03
2.044751999999999941e-03
1.969431199999999854e-03
1.869505499999999992e-03
1.750468999999999940e-03
1.618522299999999945e-03
1.605760699999999935e-03
1.740939300000000044e-03
1.863290899999999958e-03
1.966368200000000090e-03
2.044534700000000000e-03
2.093568999999999986e-03
2.110955399999999999e-03
2.095902900000000055e-03
2.049276599999999820e-03
1.973572800000000099e-03
1.872879200000000105e-03
1.752642999999999909e-03
1.619149000000000066e-03
1.589698000000000066e-03
1.724222999999999988e-03
1.845756399999999966e-03
1.947877599999999973e-03
2.025066700000000084e-03
2.073287599999999817e-03
2.090205500000000098e-03
2.075117599999999791e-03
2.028842500000000056e-03
1.953729999999999876e-03
1.853704199999999924e-03
1.734101800000000101e-03
1.601174099999999947e-03
1.555600199999999933e-03
1.687288099999999930e-03
1.806072400000000066e-03
1.905678000000000059e-03
1.980760299999999915e-03
2.027465799999999835e-03
2.043609999999999958e-03
2.028568499999999861e-03
1.983146099999999901e-03
1.909596499999999903e-03
1.811695500000000056e-03
1.694613700000000001e-03
1.564442799999999929e-03
1.504131400000000051e-03
1.630844800000000056e-03
1.744994799999999985e-03
1.840574499999999940e-03
1.912477099999999918e-03
1.957028200000000048e-03
1.972158199999999965e-03
1.957302399999999876e-03
1.913274800000000020e-03
1.842274799999999921e-03
1.747941200000000103e-03
1.635222699999999999e-03
1.509930999999999947e-03
1.556832300000000066e-03
1.664646600000000082e-03
1.754832100000000041e-03
1.822585299999999933e-03
1.864422900000000001e-03
1.878370299999999968e-03
1.863904499999999948e-03
1.821851800000000039e-03
1.754369399999999900e-03
1.664948899999999952e-03
1.558260099999999931e-03
1.568366500000000028e-03
1.652035299999999934e-03
1.714836400000000101e-03
1.753507600000000057e-03
1.766171800000000030e-03
1.752337500000000032e-03
1.712828000000000007e-03
1.649737600000000066e-03
1.566375899999999932e-03
1.593912500000000017e-03
1.629095699999999914e-03
1.696795500000000028e-03
1.710024799999999932e-03
1.698015300000000087e-03
1.726504200000000084e-03
1.794412399999999923e-03
1.837446099999999992e-03
1.852545300000000032e-03
1.838715400000000017e-03
1.797185499999999925e-03
1.731135699999999987e-03
1.750487599999999994e-03
1.849301899999999900e-03
1.925581800000000050e-03
1.973998499999999982e-03
1.990988799999999798e-03
1.975400400000000122e-03
1.928676100000000079e-03
1.854516100000000098e-03
1.758173000000000027e-03
1.728036899999999942e-03
1.854519100000000037e-03
1.963281199999999949e-03
2.047351599999999976e-03
2.100770200000000136e-03
2.119558299999999788e-03
2.102434199999999882e-03
2.051008200000000066e-03
1.969395300000000189e-03
1.863434699999999989e-03
1.739801200000000089e-03
1.661723799999999989e-03
1.809690899999999956e-03
1.946232200000000065e-03
2.063633999999999954e-03
2.154349500000000018e-03
2.211997299999999937e-03
2.232356500000000181e-03
2.214073300000000098e-03
2.158834499999999837e-03
2.070972199999999985e-03
1.956693499999999971e-03
1.823196800000000074e-03
1.677846700000000003e-03
1.719903799999999896e-03
1.877008299999999991e-03
2.021809800000000119e-03
2.146048099999999827e-03
2.241820299999999939e-03
2.302605300000000205e-03
2.324178799999999934e-03
2.305196199999999876e-03
2.247300299999999921e-03
2.154777899999999954e-03
2.033923200000000049e-03
1.892259099999999902e-03
1.737704000000000071e-03
1.577769599999999904e-03
1.593582799999999911e-03
1.762781099999999974e-03
1.927000199999999962e-03
2.077963899999999819e-03
2.206984700000000181e-03
2.306019800000000137e-03
2.368691200000000094e-03
2.391018700000000202e-03
2.371757899999999818e-03
2.312392099999999954e-03
2.216906600000000029e-03
2.091411400000000188e-03
1.943562200000000092e-03
1.781734199999999947e-03
1.614067999999999970e-03
1.613445899999999900e-03
1.787890799999999935e-03
1.956942299999999812e-03
2.111829500000000134e-03
2.243552800000000059e-03
2.344094699999999930e-03
2.407423699999999920e-03
2.429984699999999855e-03
2.410709899999999902e-03
2.350858999999999848e-03
2.253952599999999810e-03
2.125734499999999954e-03
1.973842799999999797e-03
1.806996599999999937e-03
1.633873500000000050e-03
1.440943600000000073e-03
1.615893800000000029e-03
1.792983099999999981e-03
1.964322699999999922e-03
2.120788299999999856e-03
2.253194999999999937e-03
2.353651300000000109e-03
2.416548200000000202e-03
2.438813699999999984e-03
2.419594800000000011e-03
2.359942099999999890e-03
2.262899300000000176e-03
2.133793200000000216e-03
1.980145100000000030e-03
1.810869699999999912e-03
1.635006800000000102e-03
1.460519400000000103e-03
1.424798300000000009e-03
1.599504899999999947e-03
1.776277900000000024e-03
1.947067499999999979e-03
2.102607199999999895e-03
2.233689599999999845e-03
2.332610799999999991e-03
2.394145400000000003e-03
2.415632300000000125e-03
2.396420499999999971e-03
2.337435499999999857e-03
2.241370600000000112e-03
2.113203000000000130e-03
1.960268499999999990e-03
1.791482399999999977e-03
1.615991499999999952e-03
1.441883199999999992e-03
1.392348999999999974e-03
1.563702500000000101e-03
1.736949800000000058e-03
1.904118200000000068e-03
2.056063600000000106e-03
2.183761800000000048e-03
2.279758399999999921e-03
2.339116999999999932e-03
2.359435899999999878e-03
2.340207500000000135e-03
2.282339500000000153e-03
2.188369300000000007e-03
2.063043300000000184e-03
1.913450900000000007e-03
1.748280100000000094e-03
1.576486999999999897e-03
1.406012600000000091e-03
1.509106099999999893e-03
1.675623900000000090e-03
1.836087400000000055e-03
1.981749699999999902e-03
2.103994599999999861e-03
2.195700999999999990e-03
2.252141200000000107e-03
2.271018399999999784e-03
2.251891900000000096e-03
2.195730600000000109e-03
2.105080499999999796e-03
1.984555700000000065e-03
1.840930400000000090e-03
1.682444599999999941e-03
1.517581500000000005e-03
1.437656100000000081e-03
1.594577499999999971e-03
1.745562399999999901e-03
1.882494800000000020e-03
1.997368700000000039e-03
2.083497200000000195e-03
2.136338299999999881e-03
2.153607799999999930e-03
2.134868099999999869e-03
2.081171699999999954e-03
1.995144300000000013e-03
1.881296400000000103e-03
1.746010099999999914e-03
1.596903100000000028e-03
1.441770599999999975e-03
1.497500500000000087e-03
1.636833199999999933e-03
1.763091500000000004e-03
1.869024099999999980e-03
1.948477600000000096e-03
1.997133800000000167e-03
2.012711199999999995e-03
1.994744799999999957e-03
1.944340599999999902e-03
1.864174300000000012e-03
1.758606299999999900e-03
1.633548700000000096e-03
1.495887100000000032e-03
1.515187899999999961e-03
1.629486099999999903e-03
1.725397800000000098e-03
1.797380600000000102e-03
1.841415299999999994e-03
1.855274899999999946e-03
1.838469099999999945e-03
1.792100499999999983e-03
1.718801299999999938e-03
1.622688599999999939e-03
1.509134700000000105e-03
1.487842399999999990e-03
1.573194599999999969e-03
1.637277599999999904e-03
1.676448899999999961e-03
1.688611700000000040e-03
1.673272099999999988e-03
1.631471700000000028e-03
1.565690999999999914e-03
1.479704000000000089e-03
1.673362999999999977e-03
1.713516300000000100e-03
1.727561600000000058e-03
1.714553099999999988e-03
1.675668200000000017e-03
1.668522300000000076e-03
1.764776700000000040e-03
1.839335600000000090e-03
1.886711600000000105e-03
1.903201499999999935e-03
1.887614300000000018e-03
1.841487900000000032e-03
1.768713400000000019e-03
1.674738800000000107e-03
1.682532399999999958e-03
1.810789300000000034e-03
1.922038600000000033e-03
2.008620300000000126e-03
2.063779200000000029e-03
2.082916900000000068e-03
2.064569100000000074e-03
2.010690199999999941e-03
1.926127599999999905e-03
1.817553200000000032e-03
1.692296200000000103e-03
1.649748300000000029e-03
1.804747900000000082e-03
1.949776700000000092e-03
2.076167800000000129e-03
2.174907499999999966e-03
2.237959700000000107e-03
2.259819100000000185e-03
2.238749300000000050e-03
2.177132000000000026e-03
2.080771999999999830e-03
1.957547799999999859e-03
1.816006200000000069e-03
1.664290300000000012e-03
1.574008200000000073e-03
1.747548999999999934e-03
1.919001200000000108e-03
2.079933799999999795e-03
2.220541899999999794e-03
2.330607100000000199e-03
2.400998399999999811e-03
2.425456400000000016e-03
2.402026099999999848e-03
2.333440300000000096e-03
2.226276000000000123e-03
2.089399899999999904e-03
1.932415800000000100e-03
1.764504899999999946e-03
1.646212700000000001e-03
1.834473299999999979e-03
2.020769899999999824e-03
2.195703299999999906e-03
2.348465100000000135e-03
2.467948199999999825e-03
2.544356299999999890e-03
2.571046600000000213e-03
2.545971699999999976e-03
2.472018900000000179e-03
2.356111100000000177e-03
2.207652000000000052e-03
2.037007500000000138e-03
1.854314199999999987e-03
1.668599200000000062e-03
1.511031699999999941e-03
1.706037600000000079e-03
1.907115700000000047e-03
2.105988300000000146e-03
2.292256900000000201e-03
2.454258700000000199e-03
2.580414400000000195e-03
2.660882700000000069e-03
2.689202500000000082e-03
2.663429599999999915e-03
2.586304000000000207e-03
2.464467200000000201e-03
2.307241800000000079e-03
2.125395700000000214e-03
1.929946299999999977e-03
1.731018300000000069e-03
1.536942599999999897e-03
1.545681400000000058e-03
1.750765000000000047e-03
1.962322199999999919e-03
2.171131800000000028e-03
2.365765499999999879e-03
2.533823799999999991e-03
2.663643700000000065e-03
2.745974600000000189e-03
2.775152300000000016e-03
2.749563000000000007e-03
2.671482700000000002e-03
2.546619999999999873e-03
2.383611999999999797e-03
2.193307800000000082e-03
1.987551399999999864e-03
1.777629599999999959e-03
1.572936600000000027e-03
1.366366699999999957e-03
1.565116700000000098e-03
1.777673499999999967e-03
1.996952299999999857e-03
2.212832400000000217e-03
2.412894699999999868e-03
2.584094900000000194e-03
2.714928599999999904e-03
2.797156700000000100e-03
2.826354699999999911e-03
2.801428800000000177e-03
2.724000299999999961e-03
2.598428700000000088e-03
2.432291999999999961e-03
2.236317099999999853e-03
2.023091600000000070e-03
1.805004499999999980e-03
1.592434200000000062e-03
1.392823299999999950e-03
1.364819400000000108e-03
1.567233699999999929e-03
1.784040399999999894e-03
2.007714700000000092e-03
2.227433999999999924e-03
2.429979999999999987e-03
2.601800999999999940e-03
2.731630499999999819e-03
2.812307500000000172e-03
2.840730499999999815e-03
2.816402600000000173e-03
2.740329899999999989e-03
2.615535799999999834e-03
2.448522600000000056e-03
2.249802400000000101e-03
2.032505600000000193e-03
1.809852100000000066e-03
1.592937200000000067e-03
1.389641299999999939e-03
1.347780999999999936e-03
1.550338700000000085e-03
1.767498300000000045e-03
1.991522899999999784e-03
2.211230499999999963e-03
2.412984799999999801e-03
2.582998899999999851e-03
2.710258399999999814e-03
2.788431799999999908e-03
2.815433100000000032e-03
2.791276200000000155e-03
2.716609599999999809e-03
2.593557499999999977e-03
2.427843800000000114e-03
2.229710099999999799e-03
2.012458799999999794e-03
1.789650199999999903e-03
1.572670599999999958e-03
1.369561499999999996e-03
1.314829599999999986e-03
1.513637699999999990e-03
1.726752700000000040e-03
1.946476699999999957e-03
2.161692000000000214e-03
2.358869799999999822e-03
2.524411299999999945e-03
2.647619800000000200e-03
2.722613200000000098e-03
2.747772400000000025e-03
2.723394799999999914e-03
2.650110599999999997e-03
2.529790100000000111e-03
2.367809199999999867e-03
2.174059199999999956e-03
1.961523399999999875e-03
1.743493399999999959e-03
1.531152600000000022e-03
1.332408300000000089e-03
1.266534400000000069e-03
1.457694000000000047e-03
1.662309299999999938e-03
1.872956299999999942e-03
2.079001999999999933e-03
2.267573799999999997e-03
2.425745600000000189e-03
2.543289499999999963e-03
2.614464600000000142e-03
2.637586800000000196e-03
2.612963800000000104e-03
2.541463700000000121e-03
2.425250900000000195e-03
2.269708100000000089e-03
2.084266300000000086e-03
1.881115000000000044e-03
1.672708400000000100e-03
1.469574300000000069e-03
1.279221299999999976e-03
1.384586099999999967e-03
1.576752600000000046e-03
1.774084399999999910e-03
1.966774100000000160e-03
2.143047700000000159e-03
2.291061000000000052e-03
2.401245499999999939e-03
2.467880300000000089e-03
2.488910799999999833e-03
2.464454799999999876e-03
2.395697500000000188e-03
2.285343799999999849e-03
2.138927599999999873e-03
1.965302899999999808e-03
1.775531899999999988e-03
1.580835399999999972e-03
1.390757799999999900e-03
1.297656099999999930e-03
1.474384800000000080e-03
1.655236600000000021e-03
1.831446999999999936e-03
1.992602100000000036e-03
2.128186299999999895e-03
2.229461099999999890e-03
2.290789100000000141e-03
2.309718599999999872e-03
2.286105999999999989e-03
2.221379099999999922e-03
2.118716200000000157e-03
1.983727299999999902e-03
1.824580099999999943e-03
1.651055900000000104e-03
1.472961199999999913e-03
1.298689499999999960e-03
1.360429499999999976e-03
1.522930899999999903e-03
1.680837099999999947e-03
1.825175199999999913e-03
1.946840399999999948e-03
2.038042400000000028e-03
2.093397999999999787e-03
2.110221299999999901e-03
2.088144100000000145e-03
2.028691300000000104e-03
1.935265600000000020e-03
1.813343499999999983e-03
1.670310699999999959e-03
1.514651899999999978e-03
1.354757199999999905e-03
1.383683300000000021e-03
1.522682000000000029e-03
1.649597100000000077e-03
1.756698899999999987e-03
1.837203900000000016e-03
1.886168699999999938e-03
1.900896000000000009e-03
1.880881399999999965e-03
1.827605799999999997e-03
1.744416200000000004e-03
1.636422700000000029e-03
1.510155900000000094e-03
1.372866099999999964e-03
1.363684499999999944e-03
1.473474599999999995e-03
1.566132299999999913e-03
1.635882800000000017e-03
1.678359900000000017e-03
1.691044199999999905e-03
1.673384300000000085e-03
1.626720400000000039e-03
1.554127399999999902e-03
1.460169899999999967e-03
1.645273899999999921e-03
1.686323200000000057e-03
1.700668100000000049e-03
1.687299599999999948e-03
1.647478099999999997e-03
1.658210899999999896e-03
1.759016800000000021e-03
1.837457399999999942e-03
1.887416399999999970e-03
1.904732599999999897e-03
1.888069600000000020e-03
1.839180200000000006e-03
1.762457600000000030e-03
1.663985200000000055e-03
1.544497300000000030e-03
1.690906600000000037e-03
1.828521100000000087e-03
1.948954400000000057e-03
2.043337599999999876e-03
2.103670399999999895e-03
2.124431400000000112e-03
2.103871199999999848e-03
2.044399399999999832e-03
1.951884999999999992e-03
1.834244100000000099e-03
1.699940600000000033e-03
1.673061399999999912e-03
1.842572700000000025e-03
2.003384799999999820e-03
2.145339899999999887e-03
2.257381900000000018e-03
2.329288399999999808e-03
2.353894599999999809e-03
2.328961000000000052e-03
2.257723000000000108e-03
2.147828599999999834e-03
2.009309400000000058e-03
1.852577499999999953e-03
1.687060200000000060e-03
1.606626899999999978e-03
1.798700099999999899e-03
1.991833799999999984e-03
2.176452399999999864e-03
2.340599599999999836e-03
2.470956399999999983e-03
2.554936199999999907e-03
2.583590099999999792e-03
2.554160099999999798e-03
2.470813000000000089e-03
2.343110099999999845e-03
2.183257000000000080e-03
2.003606499999999960e-03
1.815130099999999903e-03
1.626752800000000028e-03
1.499733500000000009e-03
1.703242700000000016e-03
1.916863300000000089e-03
2.132764100000000135e-03
2.340089699999999863e-03
2.525195400000000180e-03
2.672737899999999989e-03
2.768042999999999979e-03
2.800588899999999996e-03
2.767186200000000106e-03
2.672854000000000115e-03
2.528797199999999797e-03
2.349024400000000040e-03
2.147540800000000139e-03
1.936781800000000105e-03
1.726926499999999892e-03
1.525655600000000098e-03
1.567853699999999934e-03
1.789575700000000085e-03
2.023110700000000078e-03
2.259553999999999990e-03
2.486658699999999902e-03
2.689275300000000188e-03
2.850635099999999835e-03
2.954862200000000008e-03
2.990650699999999884e-03
2.954660699999999817e-03
2.852354599999999858e-03
2.695667599999999886e-03
2.499461000000000131e-03
2.278833899999999947e-03
2.047621500000000073e-03
1.817497300000000052e-03
1.597403299999999946e-03
1.405854100000000035e-03
1.624364099999999920e-03
1.862444399999999911e-03
2.113554100000000161e-03
2.367405800000000216e-03
2.610105100000000185e-03
2.825117700000000058e-03
2.995065999999999787e-03
3.104319099999999949e-03
3.142202099999999790e-03
3.105727200000000035e-03
3.000017900000000095e-03
2.836160900000000203e-03
2.628438099999999902e-03
2.392383899999999970e-03
2.143308999999999926e-03
1.894782299999999906e-03
1.657380300000000067e-03
1.438170600000000104e-03
1.436023999999999938e-03
1.666702300000000043e-03
1.918787199999999991e-03
2.184749299999999821e-03
2.452647999999999981e-03
2.706616499999999967e-03
2.928686800000000062e-03
3.101572099999999957e-03
3.211446199999999813e-03
3.249959199999999816e-03
3.215111899999999970e-03
3.110743699999999820e-03
2.945279500000000036e-03
2.730964900000000094e-03
2.483282500000000021e-03
2.219251599999999981e-03
1.954749100000000017e-03
1.702259499999999974e-03
1.469972400000000082e-03
1.238982999999999925e-03
1.452059600000000106e-03
1.692125199999999904e-03
1.955228800000000100e-03
2.232916399999999857e-03
2.511564699999999789e-03
2.773169399999999944e-03
2.998181500000000107e-03
3.169678400000000128e-03
3.276623900000000082e-03
3.314268699999999793e-03
3.282164699999999980e-03
3.182212199999999869e-03
3.018928299999999818e-03
2.801668900000000087e-03
2.545712299999999990e-03
2.269969499999999890e-03
1.992747300000000110e-03
1.728392899999999909e-03
1.486086099999999995e-03
1.270325600000000088e-03
1.234559500000000044e-03
1.451901200000000084e-03
1.697683400000000098e-03
1.967809599999999822e-03
2.253167600000000135e-03
2.538780899999999903e-03
2.804761700000000038e-03
3.030017700000000105e-03
3.197858899999999911e-03
3.300004799999999884e-03
3.335513100000000054e-03
3.305711900000000113e-03
3.210606999999999871e-03
3.050825799999999904e-03
2.832963100000000008e-03
2.572149200000000205e-03
2.288965100000000044e-03
2.003701499999999830e-03
1.732100899999999962e-03
1.483994700000000003e-03
1.263995599999999950e-03
1.216117100000000100e-03
1.433828999999999963e-03
1.680660700000000075e-03
1.952499799999999957e-03
2.239939199999999887e-03
2.527281900000000019e-03
2.793529299999999993e-03
3.016583399999999901e-03
3.179833700000000204e-03
3.276843599999999974e-03
3.309423499999999876e-03
3.280356900000000204e-03
3.188536699999999866e-03
3.032080999999999839e-03
2.815805599999999988e-03
2.554658000000000016e-03
2.270045100000000083e-03
1.983199499999999896e-03
1.710463200000000026e-03
1.461888499999999900e-03
1.242064699999999994e-03
1.183287400000000017e-03
1.396998200000000058e-03
1.639462699999999972e-03
1.906603800000000043e-03
2.189062800000000138e-03
2.471187100000000157e-03
2.732007199999999907e-03
2.949487099999999803e-03
3.107274100000000181e-03
3.199567300000000052e-03
3.229067200000000030e-03
3.199177699999999902e-03
3.108786100000000135e-03
2.955603800000000062e-03
2.743984799999999932e-03
2.488431299999999818e-03
2.209897499999999900e-03
1.929203100000000028e-03
1.662380699999999999e-03
1.419293899999999947e-03
1.204442800000000069e-03
1.136624500000000095e-03
1.341936200000000022e-03
1.574502900000000066e-03
1.830281200000000077e-03
2.100244700000000048e-03
2.369510000000000019e-03
2.618309300000000190e-03
2.825901599999999791e-03
2.976664899999999832e-03
3.064512799999999978e-03
3.091272600000000148e-03
3.060006100000000132e-03
2.970437499999999988e-03
2.821656200000000145e-03
2.618620099999999923e-03
2.375045000000000107e-03
2.110227499999999846e-03
1.843345900000000013e-03
1.589320100000000003e-03
1.357480299999999987e-03
1.152205799999999952e-03
1.270708200000000019e-03
1.488519200000000065e-03
1.727120699999999979e-03
1.978055299999999933e-03
2.227770899999999884e-03
2.458575800000000009e-03
2.651950599999999911e-03
2.793482099999999944e-03
2.876447900000000165e-03
2.900883099999999968e-03
2.868885299999999940e-03
2.781265199999999847e-03
2.639240100000000196e-03
2.448817700000000073e-03
2.222690700000000061e-03
1.977790499999999840e-03
1.730889499999999949e-03
1.495247099999999930e-03
1.279393100000000014e-03
1.186640600000000078e-03
1.386113700000000037e-03
1.603391100000000052e-03
1.830773800000000005e-03
2.056370799999999912e-03
2.264986799999999922e-03
2.440728599999999852e-03
2.570691999999999856e-03
2.647683300000000170e-03
2.669974099999999906e-03
2.638578899999999804e-03
2.555155800000000199e-03
2.422791200000000162e-03
2.248363900000000058e-03
2.043424900000000155e-03
1.822383199999999970e-03
1.599377599999999905e-03
1.385771800000000107e-03
1.189124900000000044e-03
1.272804499999999946e-03
1.466531500000000038e-03
1.668102500000000037e-03
1.867382899999999986e-03
2.051690499999999848e-03
2.207736599999999844e-03
2.324248499999999849e-03
2.393999600000000158e-03
2.414079999999999872e-03
2.384646900000000121e-03
2.307782700000000214e-03
2.187678299999999861e-03
2.031547800000000140e-03
1.849723900000000039e-03
1.654273499999999895e-03
1.456861100000000084e-03
1.266986299999999996e-03
1.323722199999999901e-03
1.499151300000000102e-03
1.671891599999999990e-03
1.831549700000000046e-03
1.967196200000000117e-03
2.069202000000000020e-03
2.130768300000000001e-03
2.148488499999999784e-03
2.121993799999999809e-03
2.053418300000000099e-03
1.947274300000000026e-03
1.810529699999999980e-03
1.652231199999999950e-03
1.482394499999999896e-03
1.310542999999999951e-03
1.331350200000000093e-03
1.478712400000000001e-03
1.614679499999999894e-03
1.730370499999999909e-03
1.817739999999999981e-03
1.870748700000000007e-03
1.886024899999999907e-03
1.862958100000000096e-03
1.803498400000000087e-03
1.711918999999999897e-03
1.594510500000000108e-03
1.458998700000000001e-03
1.313629599999999956e-03
1.294183800000000021e-03
1.408273899999999907e-03
1.505309999999999938e-03
1.578713200000000103e-03
1.623365500000000048e-03
1.636242700000000013e-03
1.616681800000000077e-03
1.566340700000000072e-03
1.488951999999999984e-03
1.389902799999999990e-03
1.613258399999999929e-03
1.627300400000000064e-03
1.614352899999999978e-03
1.603122299999999896e-03
1.703679800000000100e-03
1.782119599999999965e-03
1.832166799999999929e-03
1.849537500000000010e-03
1.832846400000000091e-03
1.783887799999999899e-03
1.707177100000000078e-03
1.608963500000000100e-03
1.504928599999999983e-03
1.653792500000000019e-03
1.794613299999999910e-03
1.918548300000000057e-03
2.016103899999999866e-03
2.078624700000000075e-03
2.100094099999999867e-03
2.078596099999999863e-03
2.016763400000000112e-03
1.920998300000000035e-03
1.799882499999999998e-03
1.662489000000000067e-03
1.476976700000000092e-03
1.653033200000000001e-03
1.830565300000000029e-03
2.000750600000000129e-03
2.152412299999999917e-03
2.273022600000000181e-03
2.350743199999999825e-03
2.377159399999999919e-03
2.349632999999999843e-03
2.272017700000000112e-03
2.153333600000000101e-03
2.005221399999999876e-03
1.839467499999999965e-03
1.666392399999999966e-03
1.599620099999999982e-03
1.804279800000000052e-03
2.013271899999999944e-03
2.216244799999999866e-03
2.399452800000000108e-03
2.546763599999999836e-03
2.642302200000000087e-03
2.674481600000000025e-03
2.639724200000000045e-03
2.543588700000000077e-03
2.398548300000000015e-03
2.220007600000000175e-03
2.022833300000000025e-03
1.819471600000000010e-03
1.619403099999999979e-03
1.500439600000000101e-03
1.719405899999999895e-03
1.953607200000000068e-03
2.195330799999999950e-03
2.432752600000000036e-03
2.649549800000000014e-03
2.825726599999999963e-03
2.940769000000000195e-03
2.979261500000000146e-03
2.936517300000000136e-03
2.820278800000000120e-03
2.647140200000000151e-03
2.436628100000000179e-03
2.206701299999999817e-03
1.971849899999999784e-03
1.742861600000000051e-03
1.527177200000000073e-03
1.587966400000000037e-03
1.832166199999999941e-03
2.095308199999999788e-03
2.368836599999999803e-03
2.639442499999999827e-03
2.888456399999999886e-03
3.092390600000000187e-03
3.226323200000000193e-03
3.271020800000000190e-03
3.220745000000000118e-03
3.085582300000000010e-03
2.886128400000000094e-03
2.645489100000000034e-03
2.384152300000000162e-03
2.118463599999999888e-03
1.860698499999999993e-03
1.619389200000000010e-03
1.399712599999999993e-03
1.425259899999999991e-03
1.665940099999999903e-03
1.933994399999999997e-03
2.224039399999999840e-03
2.526177599999999881e-03
2.825252800000000158e-03
3.100494999999999987e-03
3.326095500000000003e-03
3.474498199999999978e-03
3.524186800000000171e-03
3.468950599999999929e-03
3.320510999999999949e-03
3.101638600000000082e-03
2.837004699999999980e-03
2.548507399999999905e-03
2.254380700000000078e-03
1.969044399999999792e-03
1.702799199999999917e-03
1.461839699999999955e-03
1.246273700000000021e-03
1.472517900000000100e-03
1.731677899999999916e-03
2.021597500000000148e-03
2.335731900000000052e-03
2.662011699999999956e-03
2.982512000000000097e-03
3.274183700000000193e-03
3.510523800000000041e-03
3.664859199999999980e-03
3.661777699999999979e-03
3.510328100000000093e-03
3.283555400000000204e-03
3.004229599999999958e-03
2.694479699999999863e-03
2.375127400000000017e-03
2.063994300000000087e-03
1.774090999999999993e-03
1.513075200000000078e-03
1.283997199999999898e-03
1.268007899999999905e-03
1.507030699999999937e-03
1.782500399999999933e-03
2.091944200000000163e-03
2.427365099999999939e-03
2.773739800000000165e-03
3.109124899999999875e-03
3.407299400000000054e-03
3.642219800000000198e-03
3.651206900000000029e-03
3.428629199999999946e-03
3.143450400000000027e-03
2.817585200000000123e-03
2.475872499999999792e-03
2.140990399999999870e-03
1.829406999999999908e-03
1.550411600000000008e-03
1.307358700000000023e-03
1.277362200000000053e-03
1.526389200000000026e-03
1.815174799999999967e-03
2.141135000000000174e-03
2.494986800000000091e-03
2.858592100000000111e-03
3.205170900000000114e-03
3.504095699999999845e-03
3.729601199999999991e-03
3.747544599999999993e-03
3.536203800000000189e-03
3.249878099999999916e-03
2.910887100000000057e-03
2.549465099999999925e-03
2.193863299999999992e-03
1.863989400000000060e-03
1.570451800000000108e-03
1.316618899999999958e-03
1.272657099999999989e-03
1.527888200000000101e-03
1.825604100000000020e-03
2.163407899999999877e-03
2.531294600000000110e-03
2.908716999999999900e-03
3.264450800000000177e-03
3.562962499999999984e-03
3.310964100000000042e-03
2.961638600000000149e-03
2.585214000000000175e-03
2.214674399999999946e-03
1.872413199999999923e-03
1.569708599999999942e-03
1.309650500000000047e-03
1.090441200000000005e-03
1.252482700000000096e-03
1.508970400000000022e-03
1.809440899999999923e-03
2.151801999999999968e-03
2.525902600000000213e-03
2.910025399999999814e-03
3.270261200000000069e-03
3.306628299999999927e-03
2.953306000000000160e-03
2.571184299999999898e-03
2.195581800000000108e-03
1.849878600000000100e-03
1.545421900000000038e-03
1.284974799999999981e-03
1.066331900000000096e-03
1.216176999999999927e-03
1.468117500000000073e-03
1.763698300000000061e-03
2.100944799999999828e-03
2.469856800000000147e-03
2.848817200000000084e-03
3.203809599999999942e-03
3.495301699999999942e-03
3.501739800000000079e-03
3.220937100000000140e-03
2.874399000000000138e-03
2.500022499999999918e-03
2.132340999999999837e-03
1.794189399999999990e-03
1.496631499999999957e-03
1.242328100000000043e-03
1.029074999999999955e-03
1.164267099999999897e-03
1.405725600000000018e-03
1.688444000000000099e-03
2.010240099999999978e-03
2.361370900000000096e-03
2.721397400000000102e-03
3.058726900000000200e-03
3.336926999999999949e-03
3.528998499999999941e-03
3.630600500000000057e-03
3.656367499999999948e-03
3.618598000000000214e-03
3.512100399999999907e-03
3.323902599999999877e-03
3.054722399999999869e-03
2.726837900000000058e-03
2.373934199999999922e-03
2.027049099999999986e-03
1.707190400000000059e-03
1.424901600000000107e-03
1.183012900000000086e-03
1.098615999999999959e-03
1.324403499999999992e-03
1.587386099999999909e-03
1.884971399999999962e-03
2.207827900000000187e-03
2.537533199999999871e-03
2.846648099999999834e-03
3.104081800000000127e-03
3.286004400000000058e-03
3.385498600000000011e-03
3.410338800000000010e-03
3.368841799999999862e-03
3.259555600000000122e-03
3.077111899999999869e-03
2.825999599999999817e-03
2.525816299999999841e-03
2.204447699999999809e-03
1.887946099999999973e-03
1.594617499999999950e-03
1.334208900000000012e-03
1.109812099999999985e-03
1.022175599999999938e-03
1.228507700000000015e-03
1.466984599999999941e-03
1.734632999999999965e-03
2.022787800000000122e-03
2.315551700000000133e-03
2.590265100000000049e-03
2.821682600000000041e-03
2.989510700000000149e-03
3.084799599999999819e-03
3.109145499999999961e-03
3.066972199999999909e-03
2.959624499999999846e-03
2.788054800000000152e-03
2.559945899999999976e-03
2.292381100000000053e-03
2.007625900000000168e-03
1.726576999999999973e-03
1.464491999999999964e-03
1.230048399999999998e-03
1.026489300000000106e-03
1.123213099999999893e-03
1.334776300000000077e-03
1.569996200000000003e-03
1.821111700000000062e-03
2.074866900000000170e-03
2.313124800000000009e-03
2.515870800000000185e-03
2.666112400000000132e-03
2.754019800000000184e-03
2.777205200000000106e-03
2.737323700000000078e-03
2.637143199999999847e-03
2.481344199999999979e-03
2.279329999999999985e-03
2.045961199999999855e-03
1.798874000000000003e-03
1.554476499999999902e-03
1.325118099999999946e-03
1.118261800000000007e-03
1.197866599999999893e-03
1.400749300000000063e-03
1.615500800000000022e-03
1.831312400000000007e-03
2.033883700000000024e-03
2.207474899999999941e-03
2.338039300000000192e-03
2.415997100000000057e-03
2.437115899999999988e-03
2.401476400000000181e-03
2.312212399999999824e-03
2.175433000000000054e-03
2.000774500000000039e-03
1.801010999999999931e-03
1.590172799999999996e-03
1.381099599999999986e-03
1.183654400000000049e-03
1.234415999999999899e-03
1.415290899999999911e-03
1.595998300000000050e-03
1.765323999999999973e-03
1.910927800000000037e-03
2.021383900000000167e-03
2.088132099999999956e-03
2.106555200000000041e-03
2.076019499999999865e-03
1.999432099999999806e-03
1.882863100000000062e-03
1.735149100000000100e-03
1.567026800000000065e-03
1.389694400000000048e-03
1.213244700000000063e-03
1.226667099999999896e-03
1.375981799999999918e-03
1.515428500000000041e-03
1.635373500000000032e-03
1.726699599999999930e-03
1.782225300000000014e-03
1.797727000000000049e-03
1.772356699999999910e-03
1.708552099999999935e-03
1.611626600000000105e-03
1.489103099999999902e-03
1.349766399999999993e-03
1.202527799999999949e-03
1.288671900000000004e-03
1.385979100000000108e-03
1.460088999999999918e-03
1.505245799999999946e-03
1.517925700000000069e-03
1.497310499999999914e-03
1.445327300000000042e-03
1.366303900000000009e-03
1.266325100000000037e-03
1.600438000000000034e-03
1.674780700000000084e-03
1.722272400000000089e-03
1.738874600000000050e-03
1.723262900000000018e-03
1.677091500000000082e-03
1.604585699999999974e-03
1.570019599999999960e-03
1.706639600000000017e-03
1.827076200000000029e-03
1.922005399999999987e-03
1.982937499999999891e-03
2.003968599999999840e-03
1.983193199999999917e-03
1.923147100000000085e-03
1.830078699999999978e-03
1.712420999999999995e-03
1.579129399999999999e-03
1.586078199999999949e-03
1.762623399999999974e-03
1.932728000000000093e-03
2.084968700000000216e-03
2.206442099999999899e-03
2.284904899999999801e-03
2.311625999999999785e-03
2.283832700000000202e-03
2.205474499999999973e-03
2.085883800000000021e-03
1.937137900000000107e-03
1.771439899999999960e-03
1.599380299999999958e-03
1.548413399999999922e-03
1.756416599999999998e-03
1.970988400000000043e-03
2.181440499999999939e-03
2.373081600000000180e-03
2.528256300000000095e-03
2.629321600000000207e-03
2.663270200000000202e-03
2.626034399999999883e-03
2.523835800000000153e-03
2.370674599999999903e-03
2.183736099999999958e-03
1.979347099999999825e-03
1.770801800000000072e-03
1.567822400000000102e-03
1.461138100000000098e-03
1.687107100000000007e-03
1.932461699999999923e-03
2.189879500000000215e-03
2.447044700000000021e-03
2.685713900000000036e-03
2.882312499999999892e-03
3.011726799999999999e-03
3.054622900000000200e-03
3.005032700000000168e-03
2.872767799999999868e-03
2.678686999999999908e-03
2.446758099999999866e-03
2.198106400000000155e-03
1.948742000000000052e-03
1.709680699999999902e-03
1.487850700000000002e-03
1.335511300000000049e-03
1.564894500000000004e-03
1.823441999999999988e-03
2.107941299999999997e-03
2.410905699999999884e-03
2.718770799999999967e-03
3.009958100000000112e-03
3.254323999999999845e-03
3.417259399999999885e-03
3.470646799999999813e-03
3.405888699999999950e-03
3.238163200000000134e-03
2.997685600000000138e-03
2.716486000000000161e-03
2.420448899999999830e-03
2.127862099999999930e-03
1.850783300000000044e-03
1.596564699999999991e-03
1.368968099999999955e-03
1.406165100000000053e-03
1.661634499999999895e-03
1.952452500000000091e-03
2.275599699999999916e-03
2.623272900000000150e-03
2.980857999999999858e-03
3.324171999999999804e-03
3.617172599999999866e-03
3.594468100000000003e-03
3.308261199999999909e-03
2.979511299999999894e-03
2.637524999999999939e-03
2.302212100000000129e-03
1.986872499999999941e-03
1.699785299999999983e-03
1.445073500000000014e-03
1.227988499999999907e-03
1.467814499999999965e-03
1.748258900000000020e-03
2.069829699999999831e-03
2.429003400000000028e-03
2.816602499999999818e-03
3.216100500000000119e-03
3.601185900000000110e-03
3.587661299999999904e-03
3.222323000000000028e-03
2.841383700000000082e-03
2.466587100000000154e-03
2.114031399999999859e-03
1.794341000000000078e-03
1.512773299999999911e-03
1.270196599999999900e-03
1.260656900000000063e-03
1.518452800000000052e-03
1.822297100000000100e-03
2.172655900000000206e-03
2.564533500000000087e-03
2.985372899999999899e-03
3.414002000000000182e-03
3.437805600000000145e-03
3.027899499999999865e-03
2.617417099999999955e-03
2.228737699999999971e-03
1.876975699999999933e-03
1.569331100000000015e-03
1.306787999999999917e-03
1.055539500000000040e-03
1.282299499999999936e-03
1.556061099999999893e-03
1.881392900000000050e-03
2.258789800000000035e-03
2.681293300000000060e-03
3.131066499999999794e-03
3.578365300000000120e-03
3.196203299999999994e-03
2.751188999999999805e-03
2.326569100000000154e-03
1.943586300000000070e-03
1.611487499999999943e-03
1.331003299999999976e-03
1.098106400000000088e-03
1.055733699999999910e-03
1.291210600000000088e-03
1.578065100000000057e-03
1.922081200000000031e-03
2.324389999999999963e-03
2.776741399999999808e-03
3.255906499999999988e-03
3.340450300000000119e-03
2.859485599999999923e-03
2.399750300000000076e-03
1.988212799999999891e-03
1.635136300000000027e-03
1.340212599999999902e-03
1.097861099999999923e-03
1.044767999999999955e-03
1.285438299999999961e-03
1.581055600000000035e-03
1.938826600000000035e-03
2.361218899999999871e-03
2.840147199999999966e-03
2.924476200000000140e-03
2.435879599999999940e-03
2.002975799999999994e-03
1.635579899999999942e-03
1.331767599999999965e-03
1.084333600000000029e-03
1.021813099999999922e-03
1.263132400000000063e-03
1.561355900000000038e-03
1.924797200000000078e-03
2.357260899999999784e-03
2.851691500000000119e-03
2.922590899999999957e-03
2.421004400000000174e-03
1.980119199999999871e-03
1.608741899999999994e-03
1.303675000000000016e-03
1.056671199999999981e-03
9.865730999999999546e-04
1.223247499999999960e-03
1.516457699999999940e-03
1.874720399999999995e-03
2.302211599999999959e-03
2.792425399999999992e-03
2.837922000000000101e-03
2.346759999999999818e-03
1.915625700000000032e-03
1.552945299999999905e-03
1.255453699999999929e-03
1.014969400000000034e-03
9.396018999999999595e-04
1.166234400000000070e-03
1.446503499999999979e-03
1.788035000000000102e-03
2.194081499999999806e-03
2.657688300000000167e-03
3.153323100000000011e-03
3.157877400000000043e-03
2.673973000000000062e-03
2.216104799999999830e-03
1.811910900000000000e-03
1.470146799999999922e-03
1.188685999999999996e-03
9.605071000000000182e-04
8.824122999999999472e-04
1.094278900000000051e-03
1.354785299999999946e-03
1.669896900000000014e-03
2.041167699999999786e-03
2.460844599999999997e-03
2.905587199999999908e-03
3.332420100000000034e-03
3.290714499999999876e-03
2.881897200000000086e-03
2.452049300000000084e-03
2.042547000000000026e-03
1.677443100000000067e-03
1.365728600000000069e-03
1.106886999999999975e-03
8.956565000000000533e-04
1.010940699999999907e-03
1.246958500000000004e-03
1.529442999999999905e-03
1.858252500000000078e-03
2.225287399999999974e-03
2.610366700000000054e-03
2.979546799999999857e-03
3.290759500000000042e-03
3.509163599999999810e-03
3.623462000000000037e-03
3.645243099999999868e-03
3.588145899999999923e-03
3.451339700000000121e-03
3.227962200000000087e-03
2.925178100000000100e-03
2.570282399999999825e-03
2.199502600000000085e-03
1.844084699999999979e-03
1.523723800000000104e-03
1.247000000000000062e-03
1.014748599999999983e-03
9.204219999999999503e-04
1.129576200000000042e-03
1.376875299999999946e-03
1.660952499999999998e-03
1.974039500000000086e-03
2.299514300000000001e-03
2.611511899999999827e-03
2.879079300000000202e-03
3.075260399999999936e-03
3.186074100000000145e-03
3.211316899999999957e-03
3.156260699999999947e-03
3.024444099999999865e-03
2.820129299999999881e-03
2.555640799999999921e-03
2.253244299999999836e-03
1.939382300000000014e-03
1.637116600000000080e-03
1.361912299999999947e-03
1.121381799999999910e-03
9.171716999999999587e-04
1.008778199999999957e-03
1.221192500000000021e-03
1.462029099999999924e-03
1.724306299999999988e-03
1.994731200000000090e-03
2.253808500000000110e-03
2.478596799999999850e-03
2.647966700000000100e-03
2.747819099999999903e-03
2.772796399999999818e-03
2.723968399999999925e-03
2.606097800000000200e-03
2.427684099999999866e-03
2.202471200000000184e-03
1.948942900000000039e-03
1.686937400000000035e-03
1.433582299999999971e-03
1.200833099999999926e-03
9.951422999999999606e-04
1.069222299999999983e-03
1.270384799999999892e-03
1.487016099999999893e-03
1.708613000000000102e-03
1.920433999999999943e-03
2.105263500000000183e-03
2.246549999999999936e-03
2.331722300000000150e-03
2.354130700000000090e-03
2.313111899999999947e-03
2.213147300000000046e-03
2.063192599999999922e-03
1.876031200000000078e-03
1.666832399999999955e-03
1.450825700000000010e-03
1.240970600000000082e-03
1.046547699999999907e-03
1.091582499999999966e-03
1.268390099999999916e-03
1.447763099999999949e-03
1.618485899999999892e-03
1.767556900000000078e-03
1.882174300000000015e-03
1.951991300000000028e-03
1.970863900000000089e-03
1.937623000000000080e-03
1.855943400000000009e-03
1.733618500000000092e-03
1.581394000000000072e-03
1.411406700000000054e-03
1.235447300000000080e-03
1.063480600000000099e-03
1.071533699999999969e-03
1.215142300000000104e-03
1.350995100000000051e-03
1.469283899999999921e-03
1.560279099999999954e-03
1.615908899999999974e-03
1.631150800000000104e-03
1.604853600000000040e-03
1.539827599999999894e-03
1.442261000000000020e-03
1.320641000000000002e-03
1.184416300000000087e-03
1.211001499999999915e-03
1.282094500000000069e-03
1.325549299999999970e-03
1.337516699999999987e-03
1.568295099999999966e-03
1.583439100000000105e-03
1.569745700000000016e-03
1.571125999999999946e-03
1.681656899999999996e-03
1.768671000000000089e-03
1.824566899999999995e-03
1.844081100000000053e-03
1.825480999999999892e-03
1.770949300000000063e-03
1.685995800000000084e-03
1.578177299999999937e-03
1.475183300000000022e-03
1.641293000000000049e-03
1.801276899999999966e-03
1.944333300000000014e-03
2.058394900000000156e-03
2.132130800000000149e-03
2.157501200000000105e-03
2.131901099999999882e-03
2.058846699999999832e-03
1.946853500000000079e-03
1.807135700000000100e-03
1.651211999999999992e-03
1.489207999999999895e-03
1.453684100000000043e-03
1.654063299999999990e-03
1.861448599999999910e-03
2.065319700000000161e-03
2.251205000000000046e-03
2.401821800000000003e-03
2.500044999999999785e-03
2.533307600000000038e-03
2.497599999999999994e-03
2.398754400000000040e-03
2.250209799999999816e-03
2.068747899999999994e-03
1.870538900000000022e-03
1.668832600000000072e-03
1.473262599999999910e-03
1.381531299999999964e-03
1.603618800000000070e-03
1.846802000000000036e-03
2.104034099999999886e-03
2.362881700000000074e-03
2.604495899999999947e-03
2.804333699999999804e-03
2.936265200000000037e-03
2.980188700000000173e-03
2.929770099999999978e-03
2.794971800000000100e-03
2.597405699999999918e-03
2.362221900000000159e-03
2.111693100000000024e-03
1.862511199999999922e-03
1.625781800000000027e-03
1.408081700000000068e-03
1.267693999999999982e-03
1.496127400000000010e-03
1.757000400000000018e-03
2.048287499999999935e-03
2.363382700000000048e-03
2.688656399999999908e-03
3.000766700000000002e-03
3.265727999999999860e-03
3.443698600000000016e-03
3.501933500000000213e-03
3.430169099999999874e-03
3.245844099999999934e-03
2.984108000000000073e-03
2.682176699999999896e-03
2.369505200000000117e-03
2.065822399999999847e-03
1.782991000000000046e-03
1.527328400000000025e-03
1.346905299999999906e-03
1.606811699999999895e-03
1.908242099999999915e-03
2.250722599999999910e-03
2.628937300000000130e-03
3.029429100000000184e-03
3.425566899999999988e-03
3.736797699999999840e-03
3.395801200000000009e-03
3.016509899999999991e-03
2.634995800000000058e-03
2.272390999999999908e-03
1.940302199999999937e-03
1.644424000000000016e-03
1.386439699999999966e-03
1.174357999999999912e-03
1.418534200000000009e-03
1.709595900000000042e-03
2.051354500000000195e-03
2.444703400000000030e-03
2.885691899999999997e-03
3.362198700000000075e-03
3.346032899999999959e-03
2.896548699999999896e-03
2.475142400000000190e-03
2.093016599999999831e-03
1.755931399999999991e-03
1.465266900000000098e-03
1.219050099999999985e-03
1.213855600000000000e-03
1.480352699999999905e-03
1.801357200000000026e-03
2.181659299999999958e-03
2.622290900000000084e-03
3.118640599999999985e-03
3.144470600000000109e-03
2.668912299999999949e-03
2.237517300000000167e-03
1.858867499999999895e-03
1.535347999999999965e-03
1.264426099999999952e-03
1.010161500000000042e-03
1.243439299999999931e-03
1.530773299999999915e-03
1.880302099999999962e-03
2.297346899999999897e-03
2.781259099999999936e-03
3.322270300000000100e-03
3.378247200000000089e-03
2.852875400000000079e-03
2.371676300000000182e-03
1.950553899999999926e-03
1.594181799999999909e-03
1.299394799999999996e-03
1.059050099999999999e-03
1.016063100000000026e-03
1.261977700000000086e-03
1.568342799999999969e-03
1.945167899999999906e-03
2.398731099999999901e-03
2.926130700000000116e-03
3.028352800000000053e-03
2.492646600000000042e-03
2.027267200000000200e-03
1.638594699999999967e-03
1.321684899999999926e-03
1.066846200000000052e-03
1.012076800000000047e-03
1.268005900000000090e-03
1.590718600000000068e-03
1.992918000000000207e-03
2.483496300000000070e-03
3.059753799999999965e-03
2.591610600000000039e-03
2.082073499999999994e-03
1.663973499999999968e-03
1.328524200000000049e-03
1.062544699999999924e-03
9.973039000000000383e-04
1.259492099999999894e-03
1.593928000000000098e-03
2.016512800000000091e-03
2.540458599999999983e-03
2.649721299999999950e-03
2.103982800000000174e-03
1.664327300000000053e-03
1.316852600000000071e-03
1.044725000000000037e-03
8.323182000000000367e-04
7.667705000000000137e-04
9.709020000000000497e-04
1.234206000000000062e-03
1.572996300000000002e-03
2.005674900000000132e-03
2.549413999999999847e-03
2.642737100000000072e-03
2.080970599999999900e-03
1.633974199999999911e-03
1.284191999999999972e-03
1.012493300000000046e-03
8.018978000000000390e-04
9.325044000000000432e-04
1.190687400000000088e-03
1.524126700000000018e-03
1.951708799999999971e-03
2.491553300000000186e-03
2.555120100000000168e-03
2.006290500000000154e-03
1.570329000000000082e-03
1.229864700000000022e-03
9.660050999999999577e-04
7.619980999999999846e-04
8.826488000000000389e-04
1.129257899999999920e-03
1.447070900000000044e-03
1.853082000000000036e-03
2.362673500000000201e-03
2.981147500000000134e-03
3.002671900000000033e-03
2.391626400000000131e-03
1.883277700000000063e-03
1.475882300000000077e-03
1.155797799999999913e-03
9.067781000000000452e-04
8.229408999999999596e-04
1.052383000000000051e-03
1.345899100000000044e-03
1.717019300000000069e-03
2.176371600000000066e-03
2.724071299999999887e-03
2.706254400000000088e-03
2.174845999999999811e-03
1.724415499999999929e-03
1.357801000000000060e-03
1.066318799999999966e-03
8.375681999999999745e-04
7.558484999999999987e-04
9.641676000000000283e-04
1.227724599999999904e-03
1.556231099999999968e-03
1.955674900000000001e-03
2.422276899999999990e-03
2.933576700000000044e-03
2.866406299999999831e-03
2.380436899999999970e-03
1.932619200000000072e-03
1.545865800000000055e-03
1.225520799999999964e-03
9.670624000000000060e-04
7.618502999999999994e-04
8.693689000000000104e-04
1.100512299999999990e-03
1.384082600000000008e-03
1.722648600000000006e-03
2.110652499999999925e-03
2.529125399999999826e-03
2.942341700000000032e-03
3.302094099999999810e-03
3.563514099999999865e-03
3.704568899999999970e-03
3.729749599999999856e-03
3.651888500000000006e-03
3.475512000000000046e-03
3.203113499999999791e-03
2.851945199999999896e-03
2.457013200000000147e-03
2.058345400000000189e-03
1.687439300000000099e-03
1.362066899999999975e-03
1.088078199999999987e-03
8.636599000000000012e-04
7.724840999999999652e-04
9.713340999999999469e-04
1.211436800000000036e-03
1.493231200000000097e-03
1.810858399999999962e-03
2.149180399999999803e-03
2.482482600000000036e-03
2.777454999999999855e-03
3.001464000000000128e-03
3.132301799999999935e-03
3.162199499999999823e-03
3.093797200000000195e-03
2.934829300000000012e-03
2.698182899999999797e-03
2.404658400000000192e-03
2.081697100000000009e-03
1.757216999999999937e-03
1.453276999999999998e-03
1.183256799999999991e-03
9.525338000000000381e-04
7.608254000000000492e-04
8.455971999999999751e-04
1.045811599999999994e-03
1.277105800000000006e-03
1.534007900000000082e-03
1.804650199999999942e-03
2.070261999999999797e-03
2.307020500000000075e-03
2.490561699999999882e-03
2.601553800000000211e-03
2.629526200000000154e-03
2.573511399999999817e-03
2.440748200000000031e-03
2.245272500000000150e-03
2.006365600000000176e-03
1.745802600000000062e-03
1.484097599999999965e-03
1.237302200000000088e-03
1.015594600000000076e-03
8.236521999999999811e-04
8.918546999999999976e-04
1.079484500000000083e-03
1.285047400000000018e-03
1.499241199999999967e-03
1.708131899999999976e-03
1.894330399999999979e-03
2.039684500000000112e-03
2.128827299999999905e-03
2.152318900000000160e-03
2.108316299999999938e-03
2.002526599999999903e-03
1.846824300000000051e-03
1.656982900000000076e-03
1.449932400000000050e-03
1.241115899999999973e-03
1.042600600000000068e-03
8.623129999999999684e-04
9.027634999999999566e-04
1.065618099999999981e-03
1.233380899999999940e-03
1.395612999999999975e-03
1.539553400000000065e-03
1.651866899999999971e-03
1.721021099999999913e-03
1.739617099999999977e-03
1.705914999999999905e-03
1.624084399999999951e-03
1.503177299999999958e-03
1.355222699999999916e-03
1.193026100000000060e-03
1.028237399999999907e-03
1.005630599999999967e-03
1.130299800000000030e-03
1.240117499999999953e-03
1.325439400000000007e-03
1.377919399999999938e-03
1.392133199999999894e-03
1.366706899999999957e-03
1.304571999999999937e-03
1.212277099999999920e-03
1.098621300000000032e-03
1.094710600000000028e-03
1.105344999999999982e-03
1.086319400000000006e-03
1.498319599999999897e-03
1.573929499999999907e-03
1.622522400000000076e-03
1.639758100000000092e-03
1.624174699999999952e-03
1.577489799999999900e-03
1.504177499999999942e-03
1.478241199999999998e-03
1.620286299999999964e-03
1.746718699999999990e-03
1.847181100000000074e-03
1.912125399999999899e-03
1.934838400000000059e-03
1.913090000000000103e-03
1.849675700000000082e-03
1.751604300000000024e-03
1.628342299999999956e-03
1.489877099999999946e-03
1.322434900000000026e-03
1.505205799999999967e-03
1.693802099999999929e-03
1.878442599999999903e-03
2.046009899999999982e-03
2.181248900000000088e-03
2.269390500000000206e-03
2.299735499999999971e-03
2.268780699999999994e-03
2.181246500000000137e-03
2.048432900000000077e-03
1.884897099999999995e-03
1.705129400000000026e-03
1.521364000000000093e-03
1.266436899999999997e-03
1.473530499999999976e-03
1.700517199999999982e-03
1.940484799999999972e-03
2.181388499999999987e-03
2.405383000000000087e-03
2.589897600000000064e-03
2.711565999999999890e-03
2.752724099999999830e-03
2.707662699999999808e-03
2.584705999999999983e-03
2.402674500000000213e-03
2.184306400000000144e-03
1.950527299999999962e-03
1.717515900000000061e-03
1.496210900000000078e-03
1.384561500000000035e-03
1.633721899999999961e-03
1.913482599999999974e-03
2.217357100000000129e-03
2.531601999999999984e-03
2.832845599999999839e-03
3.087902400000000144e-03
3.259016500000000167e-03
3.315798799999999848e-03
3.248498099999999871e-03
3.072549500000000110e-03
2.820428800000000097e-03
2.528016200000000185e-03
2.224904199999999839e-03
1.931389699999999958e-03
1.659553999999999934e-03
1.415470500000000006e-03
1.250259699999999898e-03
1.502279100000000062e-03
1.798018400000000105e-03
2.138274800000000177e-03
2.518686400000000152e-03
2.925721400000000187e-03
3.331105600000000208e-03
3.687436200000000167e-03
3.653016700000000054e-03
3.301663800000000093e-03
2.911716999999999864e-03
2.522840399999999855e-03
2.157968299999999794e-03
1.828539899999999992e-03
1.538985799999999932e-03
1.289501699999999994e-03
1.088469600000000100e-03
1.326591000000000012e-03
1.614825399999999991e-03
1.959566700000000064e-03
2.365172500000000191e-03
2.831513400000000048e-03
3.349007900000000072e-03
3.321064600000000078e-03
2.833254800000000167e-03
2.389478000000000001e-03
1.997727500000000093e-03
1.659668300000000096e-03
1.373206500000000033e-03
1.133898599999999925e-03
1.130039399999999920e-03
1.393698199999999924e-03
1.717578999999999894e-03
2.110959899999999799e-03
2.581751699999999990e-03
3.134947199999999976e-03
3.140423800000000099e-03
2.617164799999999788e-03
2.161755300000000116e-03
1.773790300000000018e-03
1.449510200000000059e-03
1.182495200000000055e-03
9.324472999999999789e-04
1.161807699999999966e-03
1.449530600000000077e-03
1.807443699999999962e-03
2.246995800000000168e-03
2.777667100000000191e-03
3.431450400000000088e-03
2.835887400000000180e-03
2.317498700000000106e-03
1.878717399999999937e-03
1.516146899999999990e-03
1.221742799999999893e-03
9.853783999999999980e-04
9.390275000000000011e-04
1.183095699999999915e-03
1.493271100000000042e-03
1.883816300000000065e-03
2.367739099999999815e-03
2.952911500000000074e-03
3.049852100000000066e-03
2.465414400000000110e-03
1.972949099999999917e-03
1.571203200000000034e-03
1.250032799999999935e-03
9.962036999999999975e-04
9.366936999999999659e-04
1.193551499999999897e-03
1.524650700000000029e-03
1.947603299999999893e-03
2.478171200000000001e-03
2.606520099999999791e-03
2.054134899999999868e-03
1.612142300000000104e-03
1.265540299999999996e-03
9.963643999999999366e-04
7.880454000000000495e-04
7.214780000000000065e-04
9.252594999999999527e-04
1.192434999999999936e-03
1.542292499999999966e-03
1.997452199999999890e-03
2.580268100000000179e-03
2.732795000000000103e-03
2.115214499999999980e-03
1.634416799999999920e-03
1.265774899999999982e-03
9.847041999999999427e-04
7.704800999999999621e-04
6.980635000000000225e-04
9.042727000000000404e-04
1.178081699999999898e-03
1.542227300000000067e-03
2.025419699999999896e-03
2.660456099999999879e-03
2.142034499999999862e-03
1.631104499999999928e-03
1.247651399999999931e-03
9.600827999999999619e-04
7.438088999999999725e-04
6.679938999999999539e-04
8.731230999999999888e-04
1.148184200000000078e-03
1.518392500000000089e-03
2.017266499999999935e-03
2.117348499999999970e-03
1.595021600000000057e-03
1.208490999999999906e-03
9.218126999999999571e-04
7.081906999999999482e-04
6.315427000000000410e-04
8.314988000000000153e-04
1.100989400000000054e-03
1.465639699999999939e-03
1.959908299999999891e-03
2.627876199999999978e-03
2.030975700000000207e-03
1.522725099999999981e-03
1.147594199999999896e-03
8.702605000000000410e-04
6.643503999999999946e-04
5.893229999999999953e-04
7.799111999999999538e-04
1.036650100000000106e-03
1.383213299999999993e-03
1.850530900000000060e-03
2.476128499999999920e-03
2.513306199999999942e-03
1.887686699999999987e-03
1.417408599999999980e-03
1.067299299999999954e-03
8.072147999999999476e-04
6.136836999999999804e-04
7.199215999999999819e-04
9.577353000000000255e-04
1.275851900000000028e-03
1.698899100000000060e-03
2.253672700000000206e-03
2.247177500000000112e-03
1.705191599999999986e-03
1.288186300000000077e-03
9.726732999999999560e-04
7.357187999999999532e-04
5.581512999999999969e-04
6.539312999999999506e-04
8.685979000000000139e-04
1.151903300000000014e-03
1.521727999999999970e-03
1.994815899999999916e-03
2.578666500000000028e-03
2.513900400000000038e-03
1.959481099999999931e-03
1.504979399999999959e-03
1.146516800000000041e-03
8.700493000000000116e-04
6.594386999999999515e-04
5.847005000000000171e-04
7.741700999999999487e-04
1.020337000000000067e-03
1.335367799999999903e-03
1.728749199999999979e-03
2.201192700000000058e-03
2.735157399999999916e-03
3.143968400000000159e-03
2.626788200000000194e-03
2.125176600000000093e-03
1.678780400000000079e-03
1.304421799999999892e-03
1.002612900000000038e-03
7.654065000000000044e-04
5.819236000000000200e-04
6.789393000000000337e-04
8.886561999999999977e-04
1.151915000000000100e-03
1.473604099999999920e-03
1.851488199999999943e-03
2.270842600000000117e-03
2.700164899999999996e-03
3.092671099999999996e-03
3.397502100000000195e-03
3.576684200000000181e-03
3.615101500000000075e-03
3.516445400000000124e-03
3.294758499999999798e-03
2.973143499999999877e-03
2.585970400000000072e-03
2.174605200000000096e-03
1.776998799999999958e-03
1.419344400000000037e-03
1.114256400000000020e-03
8.637242000000000270e-04
6.633931000000000029e-04
7.622333999999999924e-04
9.789194999999999234e-04
1.238615499999999939e-03
1.537989200000000091e-03
1.865200999999999925e-03
2.197810499999999865e-03
2.503776399999999795e-03
2.747038099999999858e-03
2.896370300000000210e-03
2.933279300000000110e-03
2.855312599999999812e-03
2.674873500000000091e-03
2.415765299999999942e-03
2.108541800000000074e-03
1.784741000000000062e-03
1.471175400000000050e-03
1.186338500000000060e-03
9.398562999999999753e-04
7.341872000000000372e-04
8.205846999999999837e-04
1.027843899999999946e-03
1.262678699999999956e-03
1.515590100000000070e-03
1.770119799999999959e-03
2.003534400000000094e-03
2.190034699999999796e-03
2.306131700000000131e-03
2.336444100000000055e-03
2.277603999999999913e-03
2.138763399999999825e-03
1.938782700000000027e-03
1.701457100000000004e-03
1.450498300000000037e-03
1.205658999999999984e-03
9.807295000000000162e-04
7.833780000000000474e-04
8.426109000000000203e-04
1.024989600000000009e-03
1.218466299999999966e-03
1.410801499999999892e-03
1.585702899999999905e-03
1.724919400000000025e-03
1.811727599999999943e-03
1.834885399999999995e-03
1.791576700000000041e-03
1.688082700000000059e-03
1.537922699999999965e-03
1.358371500000000098e-03
1.166769700000000031e-03
9.777514999999999644e-04
8.018428000000000404e-04
9.696409000000000018e-04
1.113468100000000087e-03
1.242841800000000010e-03
1.345035299999999953e-03
1.408524200000000042e-03
1.425553800000000032e-03
1.394080200000000084e-03
1.318278499999999938e-03
1.207402100000000032e-03
1.073512999999999898e-03
9.289861999999999859e-04
8.709002999999999666e-04
9.658120999999999547e-04
1.040108699999999897e-03
1.085990200000000070e-03
1.098251900000000048e-03
1.075495199999999948e-03
1.020461100000000102e-03
9.393494000000000496e-04
1.410666699999999895e-03
1.516735300000000061e-03
1.600623999999999927e-03
1.654845700000000079e-03
1.674187099999999975e-03
1.656869600000000038e-03
1.604942399999999963e-03
1.523748699999999921e-03
1.420705699999999993e-03
1.325174099999999961e-03
1.487449399999999982e-03
1.645034600000000067e-03
1.786916099999999973e-03
1.900724199999999971e-03
1.974813499999999913e-03
2.000871100000000020e-03
1.976094399999999991e-03
1.903926499999999966e-03
1.792993699999999909e-03
1.654809099999999958e-03
1.501287200000000089e-03
1.308835099999999980e-03
1.508752900000000013e-03
1.718598200000000069e-03
1.927412899999999965e-03
2.119727899999999943e-03
2.276855099999999972e-03
2.380181700000000115e-03
2.415951700000000188e-03
2.379581200000000039e-03
2.277124100000000196e-03
2.123014099999999925e-03
1.935527600000000025e-03
1.732375499999999928e-03
1.527969600000000103e-03
1.332510999999999982e-03
1.239068899999999944e-03
1.463905799999999993e-03
1.715584000000000033e-03
1.987379999999999963e-03
2.265984999999999874e-03
2.530107800000000028e-03
2.751305700000000135e-03
2.898921899999999923e-03
2.949120899999999827e-03
2.894034699999999995e-03
2.744920899999999959e-03
2.526983699999999812e-03
2.269881799999999908e-03
1.999852800000000153e-03
1.736120899999999941e-03
1.490745900000000007e-03
1.270039799999999990e-03
1.123384500000000012e-03
1.355414099999999915e-03
1.628548899999999935e-03
1.943172599999999943e-03
2.294165899999999793e-03
2.667150799999999915e-03
3.034287200000000163e-03
3.352521199999999868e-03
3.569741400000000110e-03
3.642178700000000061e-03
3.555398799999999818e-03
3.331863500000000183e-03
3.017885300000000201e-03
2.662464499999999974e-03
2.303552400000000080e-03
1.965043799999999924e-03
1.659470599999999900e-03
1.391727400000000075e-03
1.162033200000000101e-03
1.198796200000000088e-03
1.469705300000000072e-03
1.796738599999999969e-03
2.184791499999999900e-03
2.633458500000000150e-03
3.131196499999999890e-03
3.645872999999999996e-03
3.603648200000000162e-03
3.111228399999999873e-03
2.637923199999999985e-03
2.208885500000000012e-03
1.833615299999999913e-03
1.513240799999999954e-03
1.244508999999999980e-03
1.016300799999999985e-03
1.265501000000000039e-03
1.576113299999999965e-03
1.959904299999999829e-03
2.428271499999999812e-03
2.989754500000000020e-03
2.989327700000000195e-03
2.457881500000000038e-03
2.006411899999999918e-03
1.629791000000000009e-03
1.320236600000000010e-03
1.068707899999999994e-03
1.045038299999999972e-03
1.320096599999999974e-03
1.669068400000000034e-03
2.108590500000000201e-03
2.657035500000000036e-03
3.336119499999999974e-03
2.700533499999999924e-03
2.171229099999999815e-03
1.737034400000000067e-03
1.386151900000000053e-03
1.105922299999999954e-03
8.838761000000000534e-04
8.314333000000000140e-04
1.062117299999999894e-03
1.360725699999999934e-03
1.745343299999999997e-03
2.236509800000000079e-03
2.856736199999999979e-03
2.930687500000000133e-03
2.325036400000000079e-03
1.832549200000000008e-03
1.440210099999999962e-03
1.132078300000000006e-03
8.920771999999999773e-04
8.242625000000000385e-04
1.067684099999999985e-03
1.387654199999999952e-03
1.805848999999999996e-03
2.345855600000000193e-03
2.471466600000000059e-03
1.916388700000000011e-03
1.481394999999999934e-03
1.146209800000000086e-03
8.899776000000000084e-04
6.945592000000000432e-04
6.184677999999999877e-04
8.085310000000000283e-04
1.062674999999999904e-03
1.402535199999999961e-03
1.854797999999999950e-03
2.448361699999999832e-03
2.617762699999999845e-03
1.988721199999999786e-03
1.508533899999999926e-03
1.147445100000000009e-03
8.772426999999999959e-04
6.749470999999999943e-04
5.918946000000000233e-04
7.851019000000000530e-04
1.047798200000000027e-03
1.406094000000000094e-03
1.894411500000000095e-03
2.044076499999999876e-03
1.518238199999999948e-03
1.134298099999999981e-03
8.535554000000000101e-04
6.472796999999999752e-04
5.604604999999999917e-04
7.544722999999999491e-04
1.022567700000000072e-03
1.395641800000000038e-03
1.917776400000000079e-03
2.066679399999999788e-03
1.503861999999999907e-03
1.104472300000000108e-03
8.185708999999999997e-04
6.120192999999999901e-04
5.248409999999999577e-04
7.166969999999999721e-04
9.852994999999999809e-04
1.365066299999999951e-03
1.907812399999999969e-03
2.034878099999999981e-03
1.457732200000000063e-03
1.055805300000000040e-03
7.722573000000000371e-04
5.698886999999999703e-04
4.856110999999999761e-04
6.717714999999999971e-04
9.343450000000000540e-04
1.308402099999999993e-03
1.847277700000000055e-03
1.935503299999999979e-03
1.376173399999999986e-03
9.880150000000000737e-04
7.154645000000000275e-04
5.220176000000000417e-04
4.434198999999999996e-04
6.201858000000000414e-04
8.696811000000000038e-04
1.224337299999999924e-03
1.731923900000000103e-03
1.775258000000000044e-03
1.263210899999999944e-03
9.038969000000000430e-04
6.502739000000000219e-04
4.700045999999999825e-04
3.991123000000000175e-04
5.632184000000000149e-04
7.935782999999999639e-04
1.117679400000000031e-03
1.573559300000000084e-03
2.211084999999999787e-03
2.196592700000000054e-03
1.577091899999999956e-03
1.129446500000000049e-03
8.088916000000000465e-04
5.797852999999999731e-04
4.157884000000000254e-04
5.027916999999999586e-04
7.099620999999999970e-04
9.969900999999999330e-04
1.391737299999999981e-03
1.926367399999999929e-03
1.875181999999999977e-03
1.366716299999999910e-03
9.873653999999999504e-04
7.093576999999999999e-04
5.074390000000000454e-04
4.410619000000000063e-04
6.231742999999999874e-04
8.710725999999999582e-04
1.204137400000000009e-03
1.642019800000000043e-03
2.197526899999999866e-03
2.862637800000000180e-03
2.707619100000000119e-03
2.092041099999999813e-03
1.574171700000000099e-03
1.162562900000000104e-03
8.471210000000000502e-04
6.108304999999999855e-04
4.362955000000000175e-04
5.370143999999999656e-04
7.468511000000000160e-04
1.022581399999999974e-03
1.375843299999999960e-03
1.811798799999999937e-03
2.321028499999999890e-03
2.870373299999999950e-03
3.399248200000000181e-03
4.151737499999999699e-03
4.003717700000000192e-03
3.678856800000000152e-03
3.226955899999999974e-03
2.709972599999999933e-03
2.189410900000000014e-03
1.712403599999999916e-03
1.304924600000000046e-03
9.741186000000000419e-04
7.150529999999999994e-04
5.171779000000000480e-04
4.543667999999999947e-04
6.289953999999999511e-04
8.537265000000000261e-04
1.135134099999999917e-03
1.474443100000000012e-03
1.862758800000000005e-03
2.276257600000000051e-03
2.674329300000000131e-03
3.004279500000000061e-03
3.213724299999999937e-03
3.266707000000000204e-03
3.155777499999999972e-03
2.903531200000000062e-03
2.553453299999999902e-03
2.156047999999999819e-03
1.756645499999999992e-03
1.388081399999999913e-03
1.068772800000000007e-03
8.048858000000000314e-04
5.943320999999999674e-04
4.306523999999999834e-04
5.203862000000000288e-04
7.009934999999999691e-04
9.223951999999999672e-04
1.183685899999999949e-03
1.476823599999999926e-03
1.783967299999999903e-03
2.076619400000000171e-03
2.318477199999999846e-03
2.472966899999999926e-03
2.513883800000000016e-03
2.434509200000000134e-03
2.249933999999999875e-03
1.991140099999999784e-03
1.694706100000000068e-03
1.393593100000000079e-03
1.111964900000000098e-03
8.640358999999999583e-04
6.555283000000000507e-04
4.862000999999999801e-04
5.659241000000000184e-04
7.380309999999999952e-04
9.369791999999999618e-04
1.155739700000000050e-03
1.380815000000000081e-03
1.592054899999999955e-03
1.764759000000000076e-03
1.874549400000000013e-03
1.904018400000000080e-03
1.848416099999999895e-03
1.717289099999999916e-03
1.531076900000000011e-03
1.314698499999999949e-03
1.091398200000000002e-03
8.789657000000000199e-04
6.886003000000000349e-04
7.311146999999999611e-04
8.927511000000000387e-04
1.055975399999999932e-03
1.206655600000000042e-03
1.328228000000000091e-03
1.404843000000000021e-03
1.425371099999999964e-03
1.386718899999999982e-03
1.294815300000000044e-03
1.162726999999999901e-03
1.006907499999999981e-03
8.433390999999999501e-04
6.848931000000000376e-04
6.806104000000000320e-04
7.981929999999999928e-04
9.049969000000000156e-04
9.900227999999999633e-04
1.043077500000000064e-03
1.057144600000000084e-03
1.030272700000000067e-03
9.661382000000000260e-04
8.730092999999999968e-04
7.615987999999999968e-04
6.427200999999999791e-04
6.716505999999999692e-04
7.310269999999999789e-04
7.677050999999999624e-04
7.772694999999999821e-04
7.585018999999999486e-04
7.136983000000000172e-04
6.480945999999999799e-04
1.393345899999999917e-03
1.507612599999999959e-03
1.598664199999999926e-03
1.657884000000000094e-03
1.679201499999999911e-03
1.660509500000000071e-03
1.604157599999999923e-03
1.516313800000000092e-03
1.405491299999999917e-03
1.293107300000000039e-03
1.466725899999999977e-03
1.637450500000000100e-03
1.792877399999999932e-03
1.918718000000000029e-03
2.001264100000000028e-03
2.030588199999999906e-03
2.003273399999999996e-03
1.923367100000000079e-03
1.801075100000000106e-03
1.649914099999999972e-03
1.483661000000000051e-03
1.314145999999999977e-03
1.265347499999999953e-03
1.478633499999999984e-03
1.706262899999999930e-03
1.936339700000000051e-03
2.151227800000000186e-03
2.328888600000000083e-03
2.446829000000000191e-03
2.488119100000000042e-03
2.446977800000000192e-03
2.330740100000000016e-03
2.156990399999999825e-03
1.947757500000000001e-03
1.723960500000000029e-03
1.502099800000000068e-03
1.293317800000000047e-03
1.179757299999999913e-03
1.417388600000000099e-03
1.688979499999999911e-03
1.988382500000000080e-03
2.301403500000000213e-03
2.603561099999999930e-03
2.860555199999999937e-03
3.034169099999999789e-03
3.093969499999999970e-03
3.029613899999999884e-03
2.855280200000000039e-03
2.602796100000000137e-03
2.309023600000000096e-03
2.005656000000000192e-03
1.714901700000000034e-03
1.449711800000000068e-03
1.215945699999999982e-03
1.046015599999999953e-03
1.287046700000000045e-03
1.577814799999999922e-03
1.921344400000000096e-03
2.314561299999999804e-03
2.743137699999999898e-03
3.175209200000000086e-03
3.557707499999999967e-03
3.823185099999999812e-03
3.913034600000000335e-03
3.807242100000000212e-03
3.535631699999999822e-03
3.159449200000000006e-03
2.741810999999999814e-03
2.329499499999999803e-03
1.949949099999999901e-03
1.615721400000000004e-03
1.329968300000000051e-03
1.090567599999999956e-03
8.826087000000000255e-04
1.107143199999999954e-03
1.388932799999999896e-03
1.739123900000000061e-03
2.167645199999999796e-03
2.679333099999999922e-03
3.266111199999999996e-03
3.247041600000000194e-03
2.689655699999999802e-03
2.200094499999999832e-03
1.784926100000000081e-03
1.440844300000000038e-03
1.160188300000000033e-03
9.047105000000000381e-04
1.155547299999999927e-03
1.478095200000000085e-03
1.890397000000000041e-03
2.412532700000000023e-03
3.064261899999999855e-03
3.069360799999999983e-03
2.452710900000000180e-03
1.948481699999999976e-03
1.542432500000000001e-03
1.219349700000000019e-03
9.645276999999999844e-04
7.045861999999999525e-04
9.129754999999999598e-04
1.187207100000000053e-03
1.547508699999999978e-03
2.019232000000000145e-03
2.633978199999999995e-03
2.691904199999999806e-03
2.097357499999999951e-03
1.629128299999999972e-03
1.264395499999999926e-03
9.826315000000000396e-04
7.660180999999999631e-04
6.875337999999999936e-04
9.066645000000000129e-04
1.200332900000000008e-03
1.593334199999999921e-03
2.117116400000000186e-03
2.907808300000000110e-03
2.227167700000000188e-03
1.698079300000000010e-03
1.293303100000000021e-03
9.867876000000000251e-04
7.558088000000000133e-04
4.937808000000000344e-04
6.602163000000000302e-04
8.869942999999999925e-04
1.196446500000000052e-03
1.617852400000000055e-03
2.187417100000000128e-03
2.343547899999999951e-03
1.750647099999999958e-03
1.306092900000000107e-03
9.769150000000000750e-04
7.341869999999999690e-04
5.550821999999999961e-04
4.576509999999999996e-04
6.247454000000000375e-04
8.567584999999999524e-04
1.179857600000000072e-03
1.629348600000000069e-03
1.790352800000000102e-03
1.303745899999999907e-03
9.537039999999999884e-04
7.019829999999999907e-04
5.202558000000000139e-04
4.175140000000000145e-04
5.836125000000000167e-04
8.190587999999999515e-04
1.154898599999999893e-03
1.635917100000000004e-03
1.815888099999999911e-03
1.285690099999999957e-03
9.177017999999999894e-04
6.603422999999999541e-04
4.787502000000000229e-04
3.753303999999999733e-04
5.389474999999999691e-04
7.758058000000000185e-04
1.122338799999999907e-03
1.635533800000000051e-03
1.814061199999999910e-03
1.247930400000000096e-03
8.687192999999999955e-04
6.104497000000000178e-04
4.320990000000000247e-04
3.326679999999999937e-04
4.921028999999999941e-04
7.271286000000000502e-04
1.078288699999999968e-03
1.612569600000000099e-03
1.763341299999999969e-03
1.184726799999999934e-03
8.063763000000000267e-04
5.535976999999999868e-04
3.819499999999999870e-04
2.906149000000000015e-04
4.437762999999999951e-04
6.722431999999999540e-04
1.017454400000000021e-03
1.548488300000000093e-03
1.650506099999999969e-03
1.093697600000000016e-03
7.315852000000000509e-04
4.915215999999999596e-04
3.300514999999999959e-04
2.498743000000000210e-04
3.944635000000000155e-04
6.109871999999999699e-04
9.380165999999999461e-04
1.437677500000000006e-03
1.484193900000000061e-03
9.796731999999999836e-04
6.475927999999999502e-04
4.266003000000000091e-04
2.782110999999999764e-04
2.109094999999999904e-04
3.448144000000000100e-04
5.446440999999999782e-04
8.434621999999999693e-04
1.291273099999999934e-03
1.289689400000000033e-03
8.532209000000000017e-04
5.594511000000000145e-04
3.616051000000000118e-04
2.281463000000000013e-04
1.740403000000000013e-04
2.956748999999999836e-04
4.755760000000000152e-04
7.403810000000000252e-04
1.127508599999999927e-03
1.686472000000000058e-03
1.616539400000000090e-03
1.092549699999999973e-03
7.255423999999999467e-04
4.723379000000000097e-04
2.991137000000000158e-04
1.812642000000000051e-04
2.479259999999999841e-04
4.063369000000000160e-04
6.352624999999999982e-04
9.615672999999999712e-04
1.417314800000000086e-03
2.033674000000000072e-03
1.895031599999999917e-03
1.329620199999999959e-03
9.083045000000000311e-04
6.045086000000000079e-04
3.900997000000000015e-04
2.409974999999999910e-04
2.023382000000000002e-04
3.390700999999999980e-04
5.329016000000000005e-04
8.025922999999999695e-04
1.168596999999999952e-03
1.648134199999999952e-03
2.245270699999999970e-03
2.936026500000000171e-03
2.722164799999999846e-03
2.073929099999999998e-03
1.521471400000000071e-03
1.079812500000000043e-03
7.427405000000000422e-04
4.939723999999999938e-04
3.148364999999999866e-04
1.882657999999999890e-04
2.753815999999999859e-04
4.364416999999999993e-04
6.554208000000000386e-04
9.449553999999999549e-04
1.313940300000000089e-03
1.761235199999999952e-03
2.267147000000000173e-03
2.785461199999999995e-03
3.242057699999999817e-03
3.106996900000000197e-03
2.626255799999999922e-03
2.111958900000000024e-03
1.626967399999999916e-03
1.206682099999999971e-03
8.638772999999999765e-04
5.965627999999999730e-04
3.951156999999999955e-04
2.473124999999999738e-04
3.479232999999999762e-04
5.227107000000000368e-04
7.481302000000000221e-04
1.027897700000000077e-03
1.358049999999999969e-03
1.721962299999999944e-03
2.086268699999999868e-03
2.401261200000000089e-03
2.610074100000000022e-03
2.667465099999999974e-03
2.559956899999999824e-03
2.312772299999999934e-03
1.977412100000000041e-03
1.610079400000000074e-03
1.255419000000000023e-03
9.408342000000000527e-04
6.782911999999999882e-04
4.689782000000000087e-04
3.079417000000000200e-04
4.059229999999999826e-04
5.787312999999999659e-04
7.877283000000000115e-04
1.027849099999999984e-03
1.285543000000000102e-03
1.537057299999999979e-03
1.749786900000000010e-03
1.888585900000000007e-03
1.926575800000000088e-03
1.855746400000000051e-03
1.690545600000000100e-03
1.461733900000000089e-03
1.204865000000000059e-03
9.503493999999999917e-04
7.187393999999999511e-04
5.206504999999999510e-04
3.590562000000000267e-04
4.362236000000000022e-04
5.903933999999999571e-04
7.630272999999999917e-04
9.436006000000000471e-04
1.115607999999999921e-03
1.258035700000000034e-03
1.349466699999999925e-03
1.374132699999999936e-03
1.327394200000000038e-03
1.217547600000000018e-03
1.062780200000000000e-03
8.851380999999999746e-04
7.047476999999999474e-04
5.364328000000000455e-04
3.889378999999999883e-04
4.315176999999999902e-04
5.546745999999999968e-04
6.805005999999999946e-04
7.977471000000000518e-04
8.929921000000000386e-04
9.532050999999999719e-04
9.691069000000000506e-04
9.380169000000000484e-04
8.647654000000000061e-04
7.601567999999999520e-04
6.377979999999999674e-04
5.108044999999999643e-04
3.895589999999999882e-04
4.807875999999999773e-04
5.607636999999999518e-04
6.246475999999999721e-04
6.644653000000000365e-04
6.746985000000000048e-04
6.537866999999999724e-04
6.045952000000000487e-04
5.336194999999999957e-04
4.492928000000000091e-04
4.549135999999999740e-04
4.614980999999999988e-04
4.472570999999999838e-04
1.368450999999999912e-03
1.345615199999999944e-03
1.465583400000000040e-03
1.561887299999999970e-03
1.624946300000000045e-03
1.647933500000000034e-03
1.628428500000000077e-03
1.569010899999999896e-03
1.476538899999999986e-03
1.360450600000000015e-03
1.229946999999999898e-03
1.410665599999999954e-03
1.590504699999999985e-03
1.755966199999999932e-03
1.891148100000000082e-03
1.980541199999999794e-03
2.012759299999999918e-03
1.983781600000000204e-03
1.898128700000000033e-03
1.767360499999999892e-03
1.606736799999999941e-03
1.431642799999999953e-03
1.255042199999999901e-03
1.187960600000000045e-03
1.408865899999999904e-03
1.648410099999999927e-03
1.894110600000000052e-03
2.126600499999999928e-03
2.320969899999999857e-03
2.451278800000000150e-03
2.497682900000000074e-03
2.453192299999999975e-03
2.326155600000000094e-03
2.136907799999999795e-03
1.910829699999999978e-03
1.671707400000000060e-03
1.437845500000000049e-03
1.221087100000000075e-03
1.084868400000000037e-03
1.328062199999999931e-03
1.611724199999999994e-03
1.930610099999999956e-03
2.270107099999999975e-03
2.603162300000000113e-03
2.890381899999999900e-03
3.086777699999999989e-03
3.155834900000000030e-03
3.084674700000000162e-03
2.889776599999999921e-03
2.608791599999999832e-03
2.285159499999999885e-03
1.955638600000000199e-03
1.645139099999999924e-03
1.367234599999999928e-03
1.127075400000000088e-03
9.327699999999999750e-04
1.174291999999999957e-03
1.472982199999999919e-03
1.834748499999999932e-03
2.258952800000000108e-03
2.731847800000000194e-03
3.218297800000000011e-03
3.656416600000000211e-03
3.640387000000000137e-03
3.211183900000000140e-03
2.740768299999999866e-03
2.284558999999999809e-03
1.873493300000000049e-03
1.519941599999999901e-03
1.224961899999999979e-03
9.837736000000000570e-04
7.535400999999999514e-04
9.713833000000000276e-04
1.252789899999999903e-03
1.613126400000000019e-03
2.067670199999999819e-03
2.626917600000000085e-03
3.286581599999999995e-03
3.281095600000000136e-03
2.651712300000000182e-03
2.113732499999999848e-03
1.670790899999999995e-03
1.314568400000000036e-03
1.032412500000000084e-03
7.512391000000000424e-04
9.914563000000000369e-04
1.311024499999999997e-03
1.734419500000000018e-03
2.290919700000000007e-03
3.011983800000000034e-03
3.036373299999999865e-03
2.349195300000000205e-03
1.807863600000000036e-03
1.387735499999999920e-03
1.064963500000000104e-03
8.185744000000000006e-04
5.420133000000000372e-04
7.305910000000000529e-04
9.880360000000000791e-04
1.339847500000000084e-03
1.820374499999999991e-03
2.475583300000000053e-03
2.557409000000000071e-03
1.918100299999999942e-03
1.436669800000000066e-03
1.076741300000000085e-03
8.089061000000000038e-04
6.099629000000000075e-04
4.993045999999999899e-04
6.911775000000000210e-04
9.591431000000000089e-04
1.334012199999999940e-03
1.858545799999999915e-03
2.720359299999999987e-03
1.993171699999999984e-03
1.456932499999999929e-03
1.065353599999999991e-03
7.809498000000000221e-04
5.746656000000000160e-04
3.111693000000000228e-04
4.449664999999999892e-04
6.354808999999999892e-04
9.075516999999999525e-04
1.296469499999999917e-03
1.851044600000000028e-03
2.037225499999999884e-03
1.450186200000000078e-03
1.031788600000000050e-03
7.357041000000000362e-04
5.263317999999999469e-04
3.778699999999999854e-04
2.554958000000000077e-04
3.828446999999999905e-04
5.687189999999999737e-04
8.408571000000000101e-04
1.239713400000000063e-03
1.423505700000000061e-03
9.799202999999998952e-04
6.760686999999999600e-04
4.674106000000000137e-04
3.233881000000000082e-04
1.980081999999999925e-04
3.176890000000000139e-04
4.974552000000000140e-04
7.687193999999999841e-04
1.180070299999999963e-03
1.382848299999999992e-03
9.140660999999999795e-04
6.058571999999999699e-04
4.012196000000000100e-04
2.641313999999999967e-04
1.421949999999999896e-04
2.540519999999999996e-04
4.275093000000000100e-04
6.983134000000000216e-04
1.126140600000000071e-03
8.363227999999999678e-04
5.286988000000000278e-04
3.313462999999999890e-04
2.031633999999999936e-04
9.090459999999999697e-05
1.953512999999999875e-04
3.624117000000000050e-04
6.314349999999999607e-04
1.071743200000000069e-03
7.467001000000000237e-04
4.477141000000000237e-04
2.612259000000000022e-04
1.434654000000000105e-04
4.598580000000000278e-05
1.434882000000000063e-04
3.033140000000000033e-04
5.659159999999999668e-04
1.003164499999999919e-03
1.111194399999999947e-03
6.465283000000000488e-04
3.660644999999999915e-04
1.939711000000000104e-04
8.764560000000000666e-05
8.226199999999999268e-06
9.901490000000000638e-05
2.499978999999999938e-04
4.995633999999999882e-04
9.136374999999999748e-04
9.583359000000000278e-04
5.411879000000000299e-04
2.873819000000000005e-04
1.322448000000000048e-04
3.772069999999999953e-05
-2.248740000000000089e-05
6.154180000000000089e-05
2.018402999999999994e-04
4.323538000000000142e-04
8.080467000000000032e-04
7.988245000000000155e-04
4.385653000000000207e-04
2.152179000000000049e-04
7.799159999999999372e-05
-5.050399999999999960e-06
-4.690020000000000202e-05
3.012400000000000161e-05
1.581457999999999996e-04
3.656244000000000226e-04
6.957502000000000391e-04
1.211800299999999959e-03
1.122014800000000010e-03
6.500126000000000384e-04
3.450222000000000185e-04
1.519322000000000088e-04
3.213929999999999906e-05
-4.024110000000000339e-05
3.579100000000000173e-06
1.181663999999999940e-04
3.005816999999999821e-04
5.835601000000000373e-04
1.011382199999999974e-03
1.637931600000000010e-03
1.466218399999999955e-03
9.039646999999999613e-04
5.187173999999999474e-04
2.631177000000000168e-04
9.810990000000000065e-05
-5.458100000000000309e-06
-1.923310000000000056e-05
8.122940000000000531e-05
2.379620000000000097e-04
4.749792000000000076e-04
8.225614000000000016e-04
1.314419800000000103e-03
1.978949099999999846e-03
1.767472800000000023e-03
1.160951500000000081e-03
7.165497999999999746e-04
4.043095000000000022e-04
1.923485999999999967e-04
5.292739999999999744e-05
-3.573579999999999758e-05
4.695969999999999696e-05
1.784924000000000124e-04
3.723290000000000193e-04
6.482683000000000152e-04
1.026052400000000090e-03
1.518612500000000084e-03
2.119788999999999961e-03
1.928269700000000055e-03
1.356252500000000019e-03
8.985930999999999736e-04
5.533088000000000242e-04
3.042078000000000251e-04
1.311088000000000075e-04
1.499259999999999940e-05
1.231829999999999893e-04
2.779478000000000157e-04
4.918103999999999965e-04
7.750510000000000168e-04
1.131106100000000029e-03
1.548780100000000069e-03
1.992896599999999848e-03
2.398670099999999916e-03
2.680261599999999959e-03
2.617170299999999929e-03
2.288549200000000033e-03
1.859557599999999951e-03
1.414068099999999913e-03
1.009556200000000063e-03
6.734589999999999500e-04
4.113637000000000066e-04
2.167310999999999890e-04
7.804739999999999410e-05
1.939862999999999896e-04
3.561131000000000040e-04
5.639587999999999849e-04
8.161085999999999471e-04
1.100863799999999941e-03
1.392063600000000012e-03
1.648461400000000073e-03
1.821047699999999922e-03
1.869608700000000056e-03
1.781197100000000023e-03
1.577124600000000048e-03
1.302358499999999942e-03
1.005985600000000027e-03
7.261223000000000460e-04
4.848109999999999768e-04
2.901997999999999926e-04
1.413054999999999975e-04
2.424713999999999906e-04
3.924504999999999790e-04
5.684962000000000001e-04
7.606005000000000101e-04
9.504872999999999621e-04
1.112556700000000027e-03
1.218886599999999959e-03
1.247898600000000094e-03
1.192902399999999944e-03
1.065141400000000054e-03
8.890967000000000488e-04
6.932805999999999908e-04
5.020307000000000111e-04
3.314891999999999839e-04
1.895215999999999915e-04
2.572019000000000150e-04
3.790488999999999751e-04
5.080863999999999606e-04
6.320054999999999987e-04
7.350685000000000248e-04
8.012253999999999470e-04
8.186432999999999688e-04
7.837792000000000326e-04
7.027618999999999706e-04
5.892154999999999832e-04
4.597994000000000213e-04
3.297999000000000134e-04
2.104429000000000109e-04
2.370639999999999922e-04
3.237035000000000086e-04
4.049103999999999984e-04
4.710051000000000146e-04
5.126281999999999584e-04
5.231351000000000187e-04
5.006020999999999822e-04
4.484795999999999878e-04
3.745372999999999758e-04
2.886340999999999950e-04
2.003371999999999900e-04
2.441148000000000027e-04
2.868823999999999962e-04
3.133516999999999835e-04
3.197024000000000241e-04
3.048654999999999833e-04
2.708435999999999830e-04
2.221780999999999930e-04
1.300974799999999936e-03
1.264791099999999953e-03
1.387115599999999950e-03
1.486027100000000042e-03
1.551260600000000040e-03
1.575420400000000038e-03
1.555820099999999893e-03
1.495168000000000061e-03
1.400792299999999982e-03
1.282775000000000104e-03
1.133704199999999987e-03
1.315993899999999984e-03
1.499466099999999897e-03
1.669969199999999949e-03
1.810497600000000092e-03
1.904223800000000083e-03
1.938630800000000053e-03
1.909166500000000072e-03
1.820624899999999944e-03
1.685523699999999991e-03
1.520391899999999933e-03
1.341773400000000017e-03
1.163397999999999950e-03
1.074915199999999923e-03
1.296017900000000092e-03
1.539472700000000084e-03
1.792664000000000020e-03
2.035173800000000203e-03
2.240079900000000162e-03
2.378869100000000070e-03
2.429398299999999816e-03
2.383579700000000058e-03
2.250347800000000037e-03
2.052026900000000070e-03
1.816534100000000108e-03
1.569832599999999943e-03
1.331521499999999960e-03
1.113800299999999962e-03
9.533182000000000504e-04
1.192981899999999949e-03
1.478212200000000084e-03
1.804931000000000070e-03
2.158680999999999968e-03
2.510838100000000080e-03
2.818384000000000167e-03
3.031269000000000064e-03
3.108208500000000062e-03
3.033979000000000016e-03
2.826321200000000197e-03
2.527092400000000016e-03
2.184865700000000049e-03
1.840477999999999992e-03
1.520929000000000074e-03
1.240036500000000087e-03
1.002027200000000021e-03
7.835856999999999675e-04
1.015339099999999902e-03
1.309439900000000006e-03
1.674605399999999937e-03
2.112784800000000202e-03
2.611335900000000092e-03
3.133079100000000020e-03
3.609760599999999823e-03
3.946164799999999674e-03
3.608772000000000108e-03
3.143794000000000102e-03
2.637933399999999994e-03
2.154184300000000062e-03
1.726600599999999998e-03
1.367109100000000067e-03
1.074485700000000045e-03
8.412285000000000248e-04
5.908546000000000197e-04
7.912392999999999987e-04
1.058532199999999901e-03
1.411888700000000054e-03
1.871611100000000055e-03
2.453605099999999796e-03
3.157132799999999833e-03
3.180140399999999840e-03
2.502110399999999801e-03
1.936351800000000057e-03
1.483861699999999969e-03
1.131139800000000029e-03
8.604414000000000116e-04
5.571643999999999946e-04
7.727230000000000079e-04
1.071011400000000105e-03
1.482200099999999958e-03
2.044093199999999933e-03
2.798748299999999876e-03
2.858222799999999945e-03
2.128040600000000084e-03
1.574189400000000063e-03
1.161123000000000016e-03
8.559795999999999724e-04
6.316636999999999946e-04
3.440636000000000172e-04
4.994272999999999811e-04
7.218450999999999644e-04
1.040816499999999917e-03
1.498550200000000037e-03
2.154527600000000036e-03
2.269981099999999943e-03
1.619157300000000077e-03
1.153461900000000030e-03
8.216881999999999572e-04
5.857212999999999786e-04
4.178254999999999860e-04
2.697612999999999747e-04
4.175143999999999882e-04
6.361487000000000305e-04
9.603980000000000026e-04
1.442562199999999949e-03
2.330399500000000096e-03
1.603365199999999893e-03
1.100806300000000066e-03
7.543728999999999886e-04
5.157392000000000443e-04
3.511953999999999749e-04
9.529069999999999891e-05
1.820455999999999973e-04
3.153211999999999855e-04
5.195706000000000022e-04
8.324304999999999509e-04
1.311896600000000100e-03
1.524825000000000052e-03
1.003796400000000078e-03
6.558348999999999776e-04
4.239569999999999797e-04
2.694285000000000039e-04
1.663818999999999867e-04
1.628919999999999983e-05
8.684780000000000559e-05
2.009866999999999980e-04
3.835021000000000090e-04
6.734014000000000406e-04
8.729255000000000434e-04
5.335051000000000159e-04
3.160867000000000039e-04
1.770069999999999944e-04
8.828970000000000275e-05
-6.192069999999999822e-05
-8.252400000000000813e-06
8.554220000000000237e-05
2.446031999999999894e-04
5.101150000000000042e-04
7.246407999999999756e-04
3.987161999999999824e-04
2.004216000000000125e-04
8.008730000000000146e-05
7.808399999999999643e-06
-1.339430000000000015e-04
-9.553540000000000014e-05
-1.978160000000000047e-05
1.195616000000000040e-04
3.682577000000000029e-04
5.732384000000000307e-04
2.633956000000000231e-04
8.614909999999999820e-05
-1.450039999999999927e-05
-7.004900000000000644e-05
-1.952885000000000124e-04
-1.687695999999999977e-04
-1.064136000000000004e-04
1.968920000000000116e-05
2.607881999999999843e-04
1.375712000000000018e-04
-1.832659999999999831e-05
-1.003795000000000034e-04
-1.405904000000000084e-04
-2.431079000000000107e-04
-2.243411000000000060e-04
-1.701212999999999868e-04
-5.125309999999999892e-05
1.864846999999999935e-04
2.910022999999999972e-04
2.898500000000000116e-05
-1.065002999999999940e-04
-1.725793000000000097e-04
-2.001232999999999886e-04
-2.764862000000000092e-04
-2.615642000000000054e-04
-2.110493000000000124e-04
-9.563859999999999603e-05
1.376252000000000118e-04
1.753574000000000094e-04
-5.682839999999999956e-05
-1.744493999999999971e-04
-2.281709999999999945e-04
-2.464248000000000263e-04
-2.962805999999999903e-04
-2.822451999999999925e-04
-2.326433000000000092e-04
-1.194180000000000008e-04
1.058450999999999939e-04
8.746330000000000673e-05
-1.177304999999999937e-04
-2.213046000000000089e-04
-2.665316999999999947e-04
-2.789178000000000013e-04
-3.046230000000000140e-04
-2.897969000000000239e-04
-2.401613999999999941e-04
-1.300650000000000092e-04
8.263809999999999743e-05
4.657193000000000118e-04
3.578227000000000122e-04
2.682869999999999946e-05
-1.561202000000000032e-04
-2.492118999999999780e-04
-2.891533999999999749e-04
-2.985261999999999812e-04
-2.882188000000000263e-04
-2.391702999999999961e-04
-1.347834000000000011e-04
5.993240000000000237e-05
3.980909999999999939e-04
9.564635000000000151e-04
7.564368999999999607e-04
2.738754999999999835e-04
-1.474650000000000018e-05
-1.779182999999999936e-04
-2.624255999999999833e-04
-2.989973000000000045e-04
-2.812156999999999916e-04
-2.343187000000000102e-04
-1.388751999999999879e-04
3.258840000000000125e-05
3.193041999999999777e-04
7.738541999999999947e-04
1.459327500000000017e-03
1.212291600000000094e-03
5.976590999999999848e-04
1.990635999999999892e-04
-4.686129999999999804e-05
-1.898343999999999997e-04
-2.658253000000000178e-04
-2.995974999999999788e-04
-2.286735999999999988e-04
-1.449406999999999996e-04
-1.773999999999999871e-07
2.325189999999999874e-04
5.857450999999999630e-04
1.092473700000000077e-03
1.546354499999999955e-03
9.055773999999999942e-04
4.414233000000000262e-04
1.263376999999999881e-04
-7.561230000000000110e-05
-1.970157000000000050e-04
-2.636054999999999887e-04
-1.532247000000000036e-04
-3.586029999999999952e-05
1.454572000000000005e-04
4.088289000000000051e-04
7.681408000000000029e-04
1.222623400000000075e-03
1.740678000000000060e-03
1.584309400000000027e-03
1.067557999999999918e-03
6.305131000000000060e-04
2.953648999999999815e-04
5.660589999999999958e-05
-1.028631999999999946e-04
-2.022639999999999866e-04
-1.626305999999999943e-04
-7.085209999999999880e-05
6.566150000000000144e-05
2.557934000000000097e-04
5.033182999999999884e-04
8.006598999999999878e-04
1.121533600000000066e-03
1.416979600000000056e-03
1.622670000000000102e-03
1.682192199999999957e-03
1.576241599999999915e-03
1.334561099999999985e-03
1.019086499999999947e-03
6.936591000000000415e-04
4.030473999999999927e-04
1.685400000000000093e-04
-6.334799999999999894e-06
-1.279463000000000052e-04
-2.065101000000000068e-04
-1.021242999999999939e-04
-2.124300000000000142e-06
1.319434000000000080e-04
2.993838999999999984e-04
4.918605999999999846e-04
6.905229000000000358e-04
8.659670000000000388e-04
9.838341000000000881e-04
1.016320999999999935e-03
9.544287000000000257e-04
8.125857999999999476e-04
6.219215999999999850e-04
4.172738999999999962e-04
2.263789999999999954e-04
6.552809999999999354e-05
-5.938830000000000194e-05
-1.495207999999999932e-04
-5.621349999999999974e-05
3.675909999999999844e-05
1.488166000000000076e-04
2.729866000000000063e-04
3.966188000000000049e-04
5.022663000000000127e-04
5.712246000000000467e-04
5.892373000000000445e-04
5.519070999999999526e-04
4.666135000000000074e-04
3.496298999999999913e-04
2.202735000000000045e-04
9.538829999999999607e-05
-1.365699999999999986e-05
-1.013166999999999985e-04
-3.340549999999999721e-05
4.112350000000000022e-05
1.212538000000000011e-04
1.987508999999999880e-04
2.632428000000000133e-04
3.043135000000000197e-04
3.143832999999999957e-04
2.912165999999999995e-04
2.387660999999999907e-04
1.658584000000000111e-04
8.343299999999999892e-05
1.695200000000000092e-06
1.791990000000000100e-05
6.684569999999999596e-05
1.066818999999999992e-04
1.314916999999999865e-04
1.371118000000000109e-04
1.223677999999999908e-04
8.946419999999999633e-05
4.335250000000000209e-05
1.150704599999999994e-03
1.271439799999999915e-03
1.369767000000000033e-03
1.435109800000000007e-03
1.459765800000000077e-03
1.440864800000000090e-03
1.381124199999999918e-03
1.288058400000000048e-03
1.172022300000000097e-03
1.005064900000000047e-03
1.182561400000000078e-03
1.363167900000000071e-03
1.532628899999999945e-03
1.673505199999999896e-03
1.768310200000000002e-03
1.803870499999999906e-03
1.775243599999999904e-03
1.687263399999999964e-03
1.552884800000000091e-03
1.389257399999999998e-03
1.213463799999999967e-03
1.039504599999999893e-03
9.275270000000000389e-04
1.140379599999999946e-03
1.378298100000000057e-03
1.629061100000000041e-03
1.872068599999999940e-03
2.079537099999999826e-03
2.221581099999999850e-03
2.274642999999999804e-03
2.229779199999999944e-03
2.096029499999999858e-03
1.896719100000000087e-03
1.661155699999999902e-03
1.416465700000000020e-03
1.182801299999999920e-03
9.722707999999999611e-04
7.873999999999999489e-04
1.013431900000000057e-03
1.288042500000000047e-03
1.608522100000000067e-03
1.961260700000000065e-03
2.317409900000000182e-03
2.632321700000000205e-03
2.853141100000000045e-03
2.935538299999999792e-03
2.862350799999999890e-03
2.651513500000000044e-03
2.347143999999999793e-03
2.000924800000000118e-03
1.656165899999999898e-03
1.340906700000000021e-03
1.068655499999999906e-03
8.425327000000000250e-04
6.019365000000000262e-04
8.129575999999999903e-04
1.088408199999999978e-03
1.439458200000000082e-03
1.870673800000000053e-03
2.371293200000000080e-03
2.904059899999999941e-03
3.397790500000000095e-03
3.755924700000000133e-03
3.890045999999999869e-03
3.764833999999999889e-03
3.418474600000000110e-03
2.939154299999999914e-03
2.420585199999999906e-03
1.931023299999999913e-03
1.506316499999999902e-03
1.157350900000000005e-03
8.805287000000000183e-04
6.658543000000000057e-04
3.991485999999999819e-04
5.711537999999999728e-04
8.096385999999999904e-04
1.136612900000000042e-03
1.576560999999999978e-03
2.150365500000000173e-03
2.861370399999999935e-03
2.923379499999999992e-03
2.228557999999999841e-03
1.662762500000000091e-03
1.223785299999999906e-03
8.929877999999999818e-04
6.480083999999999671e-04
3.283590999999999984e-04
5.051438999999999799e-04
7.626437000000000450e-04
1.135126200000000042e-03
1.667286399999999948e-03
2.410463099999999876e-03
2.515500400000000077e-03
1.781138000000000035e-03
1.246743600000000014e-03
8.658443000000000476e-04
5.973289999999999590e-04
4.090988999999999737e-04
1.174522000000000001e-04
2.270041000000000040e-04
3.963136000000000133e-04
6.567517999999999620e-04
1.055786699999999986e-03
1.663618200000000023e-03
1.817912699999999892e-03
1.199953799999999970e-03
7.842714999999999669e-04
5.059361000000000500e-04
3.199674000000000225e-04
1.959076000000000079e-04
7.177199999999999655e-06
9.525240000000000302e-05
2.415832000000000081e-04
4.815328000000000121e-04
8.727049999999999868e-04
1.509364200000000086e-03
1.722204100000000000e-03
1.058555500000000040e-03
6.371384000000000119e-04
3.696023000000000103e-04
2.000985999999999954e-04
9.325549999999999508e-05
-1.457623999999999921e-04
-1.185319000000000026e-04
-6.146749999999999382e-05
4.604140000000000272e-05
2.388040000000000128e-04
5.767316000000000196e-04
8.111591000000000244e-04
4.232829000000000127e-04
1.909302000000000037e-04
5.312970000000000057e-05
-2.688689999999999833e-05
-7.154779999999999961e-05
-2.506515000000000175e-04
-2.514292000000000219e-04
-2.317484999999999988e-04
-1.747127999999999919e-04
-5.090929999999999723e-05
1.919644000000000081e-04
1.568545000000000074e-04
-1.849920000000000069e-05
-1.119522000000000019e-04
-1.577085000000000097e-04
-1.759363999999999915e-04
-3.518563999999999741e-04
-3.807293999999999804e-04
-3.993930999999999827e-04
-3.957729000000000000e-04
-3.483693000000000054e-04
-1.323952999999999892e-04
-2.386851999999999962e-04
-2.814879000000000057e-04
-2.897509999999999843e-04
-2.799526000000000206e-04
-4.418283999999999862e-04
-4.950425999999999958e-04
-5.467020999999999643e-04
-5.886547000000000003e-04
-6.057629000000000138e-04
-4.058910000000000209e-04
-4.450780999999999900e-04
-4.394781999999999964e-04
-4.123597000000000221e-04
-3.763567000000000214e-04
-5.141930999999999542e-04
-5.847944999999999793e-04
-6.588771000000000211e-04
-7.297030999999999830e-04
-7.837163000000000506e-04
-6.270851000000000246e-04
-6.144988000000000533e-04
-5.709543000000000300e-04
-5.156600999999999589e-04
-4.584936000000000176e-04
-5.649221999999999968e-04
-6.442709000000000456e-04
-7.277250000000000298e-04
-8.071003000000000422e-04
-8.652666999999999737e-04
-7.710886999999999819e-04
-7.308253000000000449e-04
-6.652722000000000236e-04
-5.924806999999999600e-04
-5.214347000000000036e-04
-5.929194999999999735e-04
-6.725471000000000444e-04
-7.531280000000000439e-04
-8.231115999999999476e-04
-8.588502000000000462e-04
-8.306926999999999757e-04
-7.886421000000000230e-04
-7.182622999999999959e-04
-6.396279000000000157e-04
-5.627480999999999933e-04
-5.998734999999999614e-04
-6.730580000000000330e-04
-7.419119000000000278e-04
-7.912111000000000317e-04
-7.910664000000000194e-04
-6.847646999999999458e-04
-7.597440999999999483e-04
-8.177858999999999996e-04
-7.937591000000000351e-04
-7.325564000000000121e-04
-6.581337000000000038e-04
-5.826868999999999929e-04
-5.895057999999999895e-04
-6.521276999999999803e-04
-7.049186000000000037e-04
-7.301779999999999469e-04
-6.947814000000000290e-04
-5.382740000000000441e-04
-6.589171000000000004e-04
-7.578164999999999771e-04
-7.601691000000000264e-04
-7.160028000000000356e-04
-6.524442000000000305e-04
-5.837766000000000309e-04
-6.171052000000000221e-04
-6.536368000000000299e-04
-6.579459999999999649e-04
-5.978303999999999606e-04
-4.175951000000000229e-04
-2.302350000000000072e-05
-2.415490000000000009e-04
-5.525273999999999507e-04
-6.787237000000000218e-04
-7.046243999999999685e-04
-6.788499000000000139e-04
-6.289076000000000432e-04
-5.747569000000000332e-04
-5.976121000000000037e-04
-5.874921000000000396e-04
-5.165850999999999950e-04
-3.400430999999999766e-04
1.166540000000000015e-05
-1.790752999999999963e-04
-4.689534000000000085e-04
-6.012240000000000292e-04
-6.415337999999999596e-04
-6.309141999999999572e-04
-5.941480999999999976e-04
-5.432479999999999731e-04
-5.256930000000000370e-04
-4.559386999999999923e-04
-3.018103000000000062e-04
-1.864330000000000156e-05
4.487574000000000142e-04
2.452956999999999967e-04
-1.735052000000000003e-04
-4.146307000000000009e-04
-5.355315999999999939e-04
-5.803492000000000373e-04
-5.797576999999999939e-04
-4.938857000000000273e-04
-4.744896000000000183e-04
-4.134060000000000057e-04
-2.896428999999999844e-04
-7.762330000000000607e-05
2.481529000000000005e-04
7.009514000000000326e-04
5.316709000000000192e-04
1.001127999999999946e-04
-1.982971000000000093e-04
-3.833412000000000017e-04
-4.836101000000000202e-04
-5.256129000000000443e-04
-4.329310999999999858e-04
-3.837118999999999946e-04
-2.902690000000000088e-04
-1.393567000000000070e-04
7.869110000000000286e-05
3.622944000000000121e-04
6.880831999999999921e-04
1.002842699999999905e-03
1.229507199999999977e-03
1.296469400000000100e-03
1.178124100000000046e-03
9.123507999999999792e-04
5.767937000000000541e-04
2.473401999999999871e-04
-2.795700000000000016e-05
-2.313817999999999875e-04
-3.656875999999999985e-04
-4.431936000000000252e-04
-4.784421000000000181e-04
-3.617704000000000015e-04
-2.944334999999999856e-04
-1.907598000000000095e-04
-4.838239999999999945e-05
1.271439999999999875e-04
3.181244000000000064e-04
4.934159999999999935e-04
6.141109000000000498e-04
6.474115000000000338e-04
5.823650999999999784e-04
4.360446000000000027e-04
2.448605000000000182e-04
4.804479999999999781e-05
-1.252783999999999896e-04
-2.602883000000000063e-04
-3.540670000000000102e-04
-4.109086999999999983e-04
-2.971340000000000049e-04
-2.277480000000000021e-04
-1.362227999999999996e-04
-2.806189999999999978e-05
8.478079999999999980e-05
1.843830000000000132e-04
2.505574000000000212e-04
2.674446000000000245e-04
2.300509999999999968e-04
1.466375999999999867e-04
3.522929999999999828e-05
-8.339660000000000042e-05
-1.920467999999999991e-04
-2.801918999999999829e-04
-3.438634999999999782e-04
-2.509550000000000257e-04
-1.927928999999999884e-04
-1.262595999999999998e-04
-5.906239999999999884e-05
-1.538199999999999943e-06
3.552659999999999965e-05
4.409980000000000085e-05
2.178770000000000148e-05
-2.717120000000000169e-05
-9.342150000000000671e-05
-1.656461000000000131e-04
-2.337197999999999912e-04
-2.906278999999999894e-04
-1.854965000000000086e-04
-1.452782000000000010e-04
-1.116864000000000019e-04
-9.065110000000000355e-05
-8.640470000000000301e-05
-1.001402000000000005e-04
-1.295733000000000084e-04
-1.696428999999999949e-04
-2.140079999999999880e-04
1.006198999999999939e-03
1.121169900000000075e-03
1.215466300000000001e-03
1.278631599999999896e-03
1.302972799999999954e-03
1.285549200000000048e-03
1.228965100000000083e-03
1.140602199999999960e-03
1.030660600000000071e-03
8.478249000000000419e-04
1.013970899999999979e-03
1.184841100000000097e-03
1.346673600000000042e-03
1.482356800000000051e-03
1.574521800000000006e-03
1.609922900000000049e-03
1.583436799999999971e-03
1.499703700000000039e-03
1.371521199999999963e-03
1.215892799999999940e-03
1.049698599999999938e-03
8.866317999999999769e-04
7.506335999999999955e-04
9.466700000000000418e-04
1.169157799999999935e-03
1.406798699999999925e-03
1.639768900000000088e-03
1.840744600000000048e-03
1.979886299999999814e-03
2.033320999999999826e-03
1.991639700000000148e-03
1.863530699999999983e-03
1.672197999999999957e-03
1.446947399999999996e-03
1.214796499999999928e-03
9.955357999999999222e-04
8.006747000000000473e-04
5.931765000000000084e-04
7.956309999999999858e-04
1.047124499999999925e-03
1.346405400000000091e-03
1.681407900000000087e-03
2.024581299999999792e-03
2.331949600000000032e-03
2.550447300000000059e-03
2.634740400000000135e-03
2.566434900000000123e-03
2.362773099999999904e-03
2.068039399999999951e-03
1.734510999999999995e-03
1.405794699999999946e-03
1.109539799999999937e-03
8.582827999999999811e-04
6.539418999999999874e-04
3.951051000000000129e-04
5.750965000000000460e-04
8.180162999999999627e-04
1.136842500000000058e-03
1.538588000000000022e-03
2.015234299999999965e-03
2.531894900000000118e-03
3.018500300000000018e-03
3.377585299999999891e-03
3.517805299999999819e-03
3.400387200000000009e-03
3.062003000000000207e-03
2.592253300000000194e-03
2.087508200000000140e-03
1.617560600000000079e-03
1.217792799999999932e-03
8.972274000000000352e-04
6.500235999999999948e-04
4.642757000000000177e-04
3.206840000000000081e-04
5.166969999999999896e-04
7.981855000000000373e-04
1.192456300000000044e-03
1.724648799999999906e-03
2.403313499999999974e-03
2.505249000000000191e-03
1.832239700000000068e-03
1.299048599999999901e-03
8.991358999999999983e-04
6.093128999999999646e-04
4.038264000000000068e-04
7.543660000000000209e-05
2.013642000000000058e-04
4.002758000000000141e-04
7.082310000000000298e-04
1.174237700000000089e-03
1.857208900000000039e-03
2.007373800000000069e-03
1.316325699999999939e-03
8.373719000000000388e-04
5.144935999999999694e-04
3.006508999999999983e-04
1.608950999999999903e-04
-7.301079999999999560e-05
2.826490000000000106e-05
2.074575999999999905e-04
5.135762000000000313e-04
1.022864100000000099e-03
1.213101500000000020e-03
6.780856999999999510e-04
3.469267000000000271e-04
1.452407000000000069e-04
2.469939999999999937e-05
-4.533090000000000334e-05
-2.750380999999999985e-04
-2.581398999999999846e-04
-2.021717000000000078e-04
-7.488419999999999701e-05
1.808106000000000134e-04
6.655979999999999926e-04
9.176240999999999478e-04
3.868214999999999826e-04
9.186739999999999392e-05
-6.749739999999999516e-05
-1.490322999999999995e-04
-1.860708999999999942e-04
-4.404610000000000101e-04
-4.729034000000000232e-04
-4.835339000000000022e-04
-4.454972000000000077e-04
-3.057908000000000132e-04
-5.684969999999999883e-05
-2.532379999999999766e-04
-3.338931999999999968e-04
-3.551114999999999762e-04
-3.465314999999999737e-04
-5.313273999999999775e-04
-6.126591000000000242e-04
-7.025281000000000407e-04
-7.957838000000000498e-04
-8.792812999999999801e-04
-9.218654999999999645e-04
-6.387313000000000148e-04
-6.697132000000000172e-04
-6.377947999999999604e-04
-5.810704999999999993e-04
-5.174758999999999696e-04
-4.553749999999999964e-04
-6.560824999999999513e-04
-7.775857999999999642e-04
-9.255051000000000033e-04
-1.105413200000000037e-03
-1.323627200000000032e-03
-1.113057900000000069e-03
-9.499235000000000404e-04
-8.076140000000000098e-04
-6.860269000000000436e-04
-5.834313999999999516e-04
-7.644158000000000073e-04
-9.200864000000000004e-04
-1.117437200000000056e-03
-1.371611599999999999e-03
-1.707300300000000022e-03
-1.518671899999999957e-03
-1.232365700000000045e-03
-1.011609300000000005e-03
-8.375709000000000279e-04
-6.986263999999999625e-04
-8.480121000000000187e-04
-1.027104299999999923e-03
-1.256981699999999919e-03
-1.557702900000000092e-03
-1.963126099999999968e-03
-1.819909100000000014e-03
-1.448076699999999986e-03
-1.171202799999999933e-03
-9.586026000000000095e-04
-7.922940999999999534e-04
-9.015953999999999635e-04
-1.090663699999999984e-03
-1.331635500000000021e-03
-1.643110400000000063e-03
-2.054746499999999827e-03
-1.972283899999999895e-03
-1.572061700000000053e-03
-1.271373500000000075e-03
-1.039649099999999946e-03
-8.582343000000000307e-04
-9.238262999999999813e-04
-1.109466699999999946e-03
-1.340742299999999904e-03
-1.629470299999999936e-03
-1.990511500000000100e-03
-1.970386800000000025e-03
-1.598887900000000098e-03
-1.307621300000000016e-03
-1.077215299999999959e-03
-8.937959999999999785e-04
-9.171946999999999956e-04
-1.088521299999999949e-03
-1.294413199999999969e-03
-1.537642099999999906e-03
-1.815135600000000043e-03
-2.109434800000000148e-03
-2.192237399999999795e-03
-1.846366699999999915e-03
-1.542559300000000090e-03
-1.286179300000000027e-03
-1.074033500000000016e-03
-9.000856000000000004e-04
-1.037116800000000092e-03
-1.209216099999999971e-03
-1.398047400000000055e-03
-1.586561999999999912e-03
-1.732256499999999897e-03
-1.856445100000000004e-03
-1.651748699999999997e-03
-1.429223600000000070e-03
-1.220866199999999990e-03
-1.037629700000000004e-03
-9.661093999999999628e-04
-1.102915199999999953e-03
-1.240100000000000056e-03
-1.353861800000000096e-03
-1.394215799999999920e-03
-1.530810799999999909e-03
-1.435648099999999906e-03
-1.287234099999999982e-03
-1.128309700000000105e-03
-9.779236000000001046e-04
-9.904304999999999966e-04
-1.085428499999999997e-03
-1.146541700000000075e-03
-1.129229999999999947e-03
-9.549100000000000036e-04
-1.147984500000000067e-03
-1.259000799999999975e-03
-1.231494199999999930e-03
-1.139551300000000034e-03
-1.023696699999999959e-03
-8.819900999999999566e-04
-9.461477999999999946e-04
-9.754524999999999784e-04
-9.363134999999999861e-04
-7.767746000000000286e-04
-4.243933999999999879e-04
-6.316893000000000508e-04
-9.331059999999999528e-04
-1.049594100000000082e-03
-1.055111399999999989e-03
-1.000723200000000089e-03
-9.183652999999999738e-04
-7.832076000000000532e-04
-8.266432999999999464e-04
-8.394929999999999667e-04
-7.991406000000000377e-04
-6.750956000000000014e-04
-4.324045000000000102e-04
-4.408780000000000164e-05
-2.173578000000000012e-04
-5.824664000000000447e-04
-7.965958999999999670e-04
-8.930640000000000540e-04
-9.096602000000000290e-04
-8.776313000000000213e-04
-8.193188999999999594e-04
-7.265515999999999641e-04
-7.324283999999999482e-04
-6.997836000000000334e-04
-6.122306000000000536e-04
-4.549158000000000195e-04
-2.227939000000000015e-04
6.669009999999999359e-05
3.621562999999999736e-04
2.689360999999999813e-04
-4.712699999999999789e-05
-3.395145000000000237e-04
-5.625432000000000522e-04
-7.046682999999999766e-04
-7.752857000000000368e-04
-7.918327999999999652e-04
-7.719205000000000034e-04
-6.472453999999999881e-04
-6.244236999999999487e-04
-5.666748000000000314e-04
-4.686512999999999898e-04
-3.323711000000000135e-04
-1.723770999999999865e-04
-1.821119999999999938e-05
9.075650000000000427e-05
1.201709999999999985e-04
5.835000000000000207e-05
-7.660750000000000133e-05
-2.466546999999999815e-04
-4.122279999999999976e-04
-5.459872000000000163e-04
-6.363802000000000434e-04
-6.840617000000000442e-04
-6.962948000000000271e-04
-5.640638000000000119e-04
-5.281139999999999923e-04
-4.689027000000000125e-04
-3.898552000000000007e-04
-3.010018000000000155e-04
-2.189420999999999989e-04
-1.633314000000000131e-04
-1.500330999999999985e-04
-1.840853000000000042e-04
-2.570820999999999827e-04
-3.509580999999999899e-04
-4.455015999999999902e-04
-5.249048999999999555e-04
-5.806131000000000399e-04
-6.107595999999999858e-04
-4.923920000000000250e-04
-4.577720000000000075e-04
-4.125576000000000156e-04
-3.632015999999999955e-04
-3.190401000000000153e-04
-2.902199999999999962e-04
-2.844594999999999893e-04
-3.040526999999999900e-04
-3.448243000000000250e-04
-3.977167000000000202e-04
-4.520616999999999886e-04
-4.987566999999999608e-04
-5.320632000000000052e-04
-4.136381999999999863e-04
-3.864882000000000040e-04
-3.627580000000000257e-04
-3.478535000000000264e-04
-3.456970999999999872e-04
-3.573766999999999829e-04
-3.806991999999999820e-04
-4.109065999999999869e-04
-4.421844999999999877e-04
-3.675538999999999911e-04
-3.671241999999999908e-04
-3.742886000000000065e-04
8.372310000000000212e-04
9.424881000000000404e-04
1.029424400000000057e-03
1.088146400000000041e-03
1.111308400000000007e-03
1.096033400000000083e-03
1.044701500000000047e-03
9.642401000000000314e-04
8.642577000000000245e-04
6.688879999999999696e-04
8.176901999999999998e-04
9.723630999999999941e-04
1.120210499999999909e-03
1.245214699999999935e-03
1.330941399999999901e-03
1.364719699999999937e-03
1.341509399999999980e-03
1.265543800000000106e-03
1.148848600000000044e-03
1.007469999999999893e-03
8.573053000000000401e-04
7.111485999999999762e-04
5.525212000000000049e-04
7.241043999999999649e-04
9.220018000000000397e-04
1.136274399999999971e-03
1.348782300000000078e-03
1.534010400000000067e-03
1.663702800000000032e-03
1.714944199999999998e-03
1.678402799999999901e-03
1.561998399999999908e-03
1.387605699999999893e-03
1.182983099999999899e-03
9.736417999999999722e-04
7.780482000000000023e-04
6.066344000000000207e-04
3.802809000000000202e-04
5.506744999999999739e-04
7.678427000000000472e-04
1.031875399999999943e-03
1.332745900000000070e-03
1.645604499999999901e-03
1.929520199999999958e-03
2.134138199999999902e-03
2.215674700000000181e-03
2.155654099999999938e-03
1.969822500000000150e-03
1.700212399999999910e-03
1.396690199999999979e-03
1.100619800000000002e-03
8.377182999999999852e-04
6.189760000000000314e-04
4.451893999999999968e-04
1.738184000000000094e-04
3.146185000000000236e-04
5.132517999999999976e-04
7.835456999999999882e-04
1.134349999999999898e-03
1.560759400000000024e-03
2.032344199999999799e-03
2.484289099999999802e-03
2.823712300000000026e-03
2.961372299999999978e-03
2.857515599999999913e-03
2.545909800000000119e-03
2.112789500000000070e-03
1.651248099999999943e-03
1.227929399999999919e-03
8.753354000000000083e-04
6.001348000000000533e-04
3.948361999999999857e-04
2.465991999999999750e-04
5.397879999999999893e-05
1.970088999999999901e-04
4.170825999999999765e-04
7.423695999999999811e-04
1.200574499999999996e-03
1.805278800000000060e-03
1.938005999999999930e-03
1.330681999999999915e-03
8.642768000000000325e-04
5.280461999999999656e-04
2.960624999999999932e-04
1.412569999999999928e-04
4.094909999999999729e-05
-1.870021000000000031e-04
-1.199128999999999950e-04
7.367500000000000188e-06
2.299342999999999916e-04
5.974491999999999650e-04
1.172587600000000096e-03
1.356183200000000023e-03
7.600143999999999650e-04
3.712794999999999746e-04
1.288297000000000042e-04
-1.627110000000000080e-05
-9.886060000000000008e-05
-3.818914000000000076e-04
-3.575890000000000080e-04
-2.750106999999999790e-04
-8.780199999999999724e-05
2.800082999999999869e-04
4.949989999999999815e-04
8.993000000000000126e-05
-1.283899000000000021e-04
-2.366233000000000084e-04
-2.818540000000000021e-04
-5.595293000000000098e-04
-6.188965000000000265e-04
-6.626390000000000231e-04
-6.648583000000000444e-04
-5.747203999999999464e-04
-2.951076000000000068e-04
-3.572312000000000230e-04
-4.926277999999999864e-04
-5.251903000000000257e-04
-5.082628999999999750e-04
-4.696389999999999940e-04
-7.627324000000000430e-04
-8.893462000000000199e-04
-1.027052199999999938e-03
-1.160378600000000092e-03
-1.249797499999999928e-03
-9.954399999999999967e-04
-9.663432000000000011e-04
-8.767846000000000146e-04
-7.712545999999999595e-04
-6.685823999999999500e-04
-9.720485000000000497e-04
-1.175351600000000031e-03
-1.426523700000000092e-03
-1.731387000000000030e-03
-2.084953999999999974e-03
-1.806880099999999892e-03
-1.525433299999999969e-03
-1.270680900000000033e-03
-1.055044599999999978e-03
-8.774225000000000513e-04
-9.551660000000000228e-04
-1.170500600000000087e-03
-1.450643699999999963e-03
-1.819831199999999904e-03
-2.313026699999999949e-03
-2.980916299999999790e-03
-2.704787499999999900e-03
-2.111626699999999933e-03
-1.669124599999999899e-03
-1.335202499999999914e-03
-1.080165899999999991e-03
-8.830968999999999711e-04
-1.080630099999999993e-03
-1.339556800000000049e-03
-1.684880900000000018e-03
-2.155425800000000149e-03
-2.814172599999999972e-03
-3.770302299999999784e-03
-3.531500199999999985e-03
-2.638133799999999810e-03
-2.022495599999999793e-03
-1.582230000000000008e-03
-1.258631500000000026e-03
-1.015617899999999999e-03
-1.174714899999999970e-03
-1.462993099999999923e-03
-1.850847899999999956e-03
-2.385290699999999785e-03
-3.144708500000000136e-03
-4.270527700000000329e-03
-4.103736499999999926e-03
-3.013685800000000161e-03
-2.281772100000000088e-03
-1.768146400000000090e-03
-1.396038399999999973e-03
-1.119758599999999982e-03
-1.230962400000000078e-03
-1.530681899999999972e-03
-1.931971200000000060e-03
-2.480818499999999822e-03
-3.251665600000000142e-03
-4.373502500000000202e-03
-4.298229899999999638e-03
-3.177479200000000049e-03
-2.414065500000000131e-03
-1.873922799999999927e-03
-1.480790399999999977e-03
-1.188149899999999979e-03
-1.247732099999999912e-03
-1.540803699999999899e-03
-1.926693699999999961e-03
-2.442147999999999888e-03
-3.141250799999999784e-03
-4.105071000000000067e-03
-4.117728999999999660e-03
-3.124033599999999789e-03
-2.413269699999999809e-03
-1.894502400000000085e-03
-1.509021900000000020e-03
-1.217909099999999909e-03
-1.499602199999999904e-03
-1.847622400000000073e-03
-2.295518900000000171e-03
-2.870664599999999973e-03
-3.598239000000000038e-03
-3.676827000000000133e-03
-2.900213699999999815e-03
-2.299728500000000186e-03
-1.839041000000000026e-03
-1.484897399999999916e-03
-1.418953599999999912e-03
-1.716235100000000017e-03
-2.081050499999999824e-03
-2.517751500000000101e-03
-3.010631799999999997e-03
-3.126385399999999891e-03
-2.578533999999999948e-03
-2.109876300000000215e-03
-1.726573400000000046e-03
-1.418687999999999980e-03
-1.312941499999999932e-03
-1.556070299999999995e-03
-1.838675199999999970e-03
-2.150829899999999809e-03
-2.458020600000000201e-03
-2.585446199999999993e-03
-2.227269799999999876e-03
-1.882688599999999971e-03
-1.579609100000000082e-03
-1.323617399999999942e-03
-1.387333500000000096e-03
-1.598808599999999944e-03
-1.813593100000000097e-03
-1.995401200000000014e-03
-2.070245899999999944e-03
-2.251009500000000167e-03
-2.117091900000000072e-03
-1.893416100000000013e-03
-1.649713300000000020e-03
-1.418573100000000047e-03
-1.224287899999999991e-03
-1.379580600000000030e-03
-1.525253700000000091e-03
-1.631702199999999917e-03
-1.648114700000000024e-03
-1.497154799999999945e-03
-1.692514499999999951e-03
-1.795414699999999973e-03
-1.738575800000000072e-03
-1.600542300000000039e-03
-1.431234700000000000e-03
-1.258721900000000062e-03
-1.075144099999999917e-03
-1.188706199999999946e-03
-1.288342000000000046e-03
-1.353058099999999899e-03
-1.351956199999999929e-03
-1.246104600000000036e-03
-9.996523000000000648e-04
-1.164050100000000058e-03
-1.388318500000000101e-03
-1.467124800000000045e-03
-1.442188899999999937e-03
-1.355031899999999904e-03
-1.237234999999999941e-03
-1.109538100000000008e-03
-1.027079200000000038e-03
-1.097090399999999921e-03
-1.139754800000000040e-03
-1.137710699999999915e-03
-1.073008000000000078e-03
-9.348705999999999596e-04
-7.325447999999999595e-04
-5.079537999999999545e-04
-5.969894999999999802e-04
-8.411016000000000109e-04
-1.046084999999999984e-03
-1.175529700000000049e-03
-1.225805599999999938e-03
-1.211785699999999967e-03
-1.153838500000000083e-03
-1.070473400000000090e-03
-9.431736000000000460e-04
-9.742375000000000384e-04
-9.759995999999999516e-04
-9.407912000000000262e-04
-8.668728000000000327e-04
-7.637734999999999880e-04
-6.554266999999999906e-04
-5.760557999999999608e-04
-5.564495000000000465e-04
-6.070992000000000098e-04
-7.113415999999999793e-04
-8.348615999999999893e-04
-9.432833999999999750e-04
-1.014803199999999954e-03
-1.042750299999999943e-03
-1.031402299999999942e-03
-9.902413999999999140e-04
-8.432604000000000011e-04
-8.489292999999999969e-04
-8.326197999999999932e-04
-7.952833000000000298e-04
-7.438444000000000436e-04
-6.915509999999999930e-04
-6.550329999999999608e-04
-6.480620999999999561e-04
-6.749713000000000067e-04
-7.281886999999999692e-04
-7.918311000000000360e-04
-8.487428999999999677e-04
-8.864418999999999467e-04
-8.994173000000000055e-04
-8.882054000000000121e-04
-7.458566000000000241e-04
-7.408411000000000380e-04
-7.238658999999999502e-04
-6.994396000000000380e-04
-6.748735999999999754e-04
-6.585267000000000117e-04
-6.568945999999999770e-04
-6.718590000000000196e-04
-6.997264999999999692e-04
-7.327126999999999685e-04
-7.619591000000000211e-04
-7.803795999999999780e-04
-7.841512999999999609e-04
-6.557995999999999747e-04
-6.455299999999999537e-04
-6.349224999999999574e-04
-6.283111000000000295e-04
-6.288952999999999688e-04
-6.375194999999999734e-04
-6.522723999999999927e-04
-6.691485000000000054e-04
-6.834192999999999909e-04
-5.846077000000000305e-04
-5.860330000000000183e-04
-5.911392999999999596e-04
6.524985000000000073e-04
7.448030999999999706e-04
8.215810999999999730e-04
8.739007999999999932e-04
8.950790000000000135e-04
8.824386999999999509e-04
8.380472999999999612e-04
7.680945000000000437e-04
6.812068000000000116e-04
4.777650999999999838e-04
6.045656000000000380e-04
7.378312999999999842e-04
8.663978999999999604e-04
9.760132000000000356e-04
1.051930699999999988e-03
1.082678899999999986e-03
1.063581299999999960e-03
9.982904999999999383e-04
8.974983999999999653e-04
7.755455000000000508e-04
6.466387999999999997e-04
5.221549999999999499e-04
3.442682999999999984e-04
4.857390000000000058e-04
6.518821999999999638e-04
8.343897999999999983e-04
1.017528300000000068e-03
1.178788600000000046e-03
1.292973200000000064e-03
1.339431500000000039e-03
1.309524899999999934e-03
1.210045799999999927e-03
1.060361799999999955e-03
8.851851999999999897e-04
7.072076000000000490e-04
5.427245999999999503e-04
4.007301999999999804e-04
1.610760999999999942e-04
2.936371000000000011e-04
4.682099000000000113e-04
6.858866000000000138e-04
9.388378000000000391e-04
1.205943699999999924e-03
1.451451400000000006e-03
1.630717000000000061e-03
1.704422900000000015e-03
1.655487300000000076e-03
1.497361499999999958e-03
1.267176399999999986e-03
1.009219499999999955e-03
7.601298999999999946e-04
5.423675000000000414e-04
3.650503000000000038e-04
2.281289000000000038e-04
-4.877640000000000279e-05
4.811150000000000176e-05
1.947039999999999979e-04
4.045071999999999817e-04
6.871153999999999977e-04
1.040290900000000011e-03
1.439176300000000013e-03
1.827863000000000101e-03
2.124391099999999814e-03
2.248715399999999792e-03
2.164048899999999886e-03
1.899261499999999915e-03
1.530635700000000047e-03
1.140865999999999929e-03
7.887556999999999468e-04
5.021446000000000373e-04
2.855345999999999817e-04
1.308488999999999865e-04
2.553839999999999930e-05
-2.116750000000000088e-04
-1.271404999999999866e-04
2.151570000000000137e-05
2.609541000000000161e-04
6.186171999999999765e-04
1.110641799999999941e-03
1.258807399999999944e-03
7.600887999999999655e-04
3.904139000000000264e-04
1.371261000000000084e-04
-2.540569999999999970e-05
-1.229435999999999929e-04
-1.764976000000000023e-04
-4.419720999999999828e-04
-4.360308999999999930e-04
-3.861509999999999964e-04
-2.609668999999999899e-04
-1.455640000000000009e-05
4.131057000000000045e-04
6.115559000000000446e-04
1.568232999999999932e-04
-1.148499000000000064e-04
-2.623362000000000176e-04
-3.313715000000000172e-04
-3.534995999999999993e-04
-6.780885000000000384e-04
-7.317502000000000468e-04
-7.505615999999999460e-04
-6.947576999999999703e-04
-4.958340000000000100e-04
-2.724167999999999902e-04
-5.134090999999999698e-04
-6.027692000000000293e-04
-6.107228000000000136e-04
-5.784195000000000005e-04
-8.270887000000000421e-04
-9.600458999999999556e-04
-1.101861300000000089e-03
-1.235090799999999942e-03
-1.319707800000000097e-03
-1.271730300000000098e-03
-1.101851499999999999e-03
-1.064033299999999922e-03
-9.659169000000000218e-04
-8.507866999999999904e-04
-7.383142999999999997e-04
-1.062327100000000097e-03
-1.277696600000000028e-03
-1.536600300000000047e-03
-1.836159300000000071e-03
-2.153505899999999876e-03
-1.904512699999999937e-03
-1.646784000000000095e-03
-1.389893899999999991e-03
-1.162179300000000049e-03
-9.699933000000000426e-04
